value
-12.506133807018834
-8.21702362792744
-10.974892097472143
-17.264835764780674
-18.250437132306693
-12.06557529473668
-6.115251667297914
-6.880309070970394
-11.436849291997282
-12.25792910697753
-7.777984012004817
-4.323139393936534
-7.184399827120124
-13.180565432547677
-15.064933416696402
-11.138875531482736
-7.082224437280805
-8.076094208944333
-11.859910869029756
-11.78917894681309
-5.439666421342301
2.17381857762802
4.668767352030514
1.628907011970388
-2.0164594645931397
-1.7894298818872805
3.2200822174105723
11.325193661157972
20.176992097566266
28.15457518806425
35.12540788941162
41.35341658715544
45.332743975037204
44.061869980441145
36.3789057990891
25.371632825979805
16.063845144397817
10.181335763274332
4.530690580693687
-4.2393437760157155
-14.683417408461105
-22.177713344430543
-24.62258698942309
-24.71761136283365
-26.157916974020004
-28.846635015674266
-29.542493996038814
-26.889813840926365
-23.677438077352548
-23.11260427641712
-24.388920086436315
-23.995861607100704
-20.986529820393226
-18.651167301924847
-19.990318663638277
-23.230983871612587
-23.943059757938148
-20.891674805221413
-17.294189266603375
-15.903175676386592
-15.810287974000378
-17.40945976725486
-30.115330096757948
-70.21159755809202
-145.06424719689429
-237.55546846426245
-307.605298087332
-309.94530335588826
-215.70414198108088
-31.25030757087343
193.72001429386668
387.1662827129625
498.0698906539689
514.3985351544115
443.3647189595406
302.28062293358533
129.4969557775721
-25.311532094560693
-129.30925749153306
-176.23111061553837
-175.344291240525
-141.9827852678829
-95.51422533809541
-55.32300551616072
-32.17884562225637
-23.984709997181056
-21.843597036365495
-19.926241259586746
-18.647709863770544
-19.607661947493686
-20.719827509906978
-18.30586688839499
-12.572052759373697
-8.174458108331622
-8.320972827313657
-10.170742042422882
-8.33891035121149
-2.1540640848355395
3.2925856184156808
3.963586920154844
2.3271503282259283
4.112330183591418
11.28137537334684
20.71090662512714
28.90079336410173
34.639538853487956
37.267485716021405
36.48316039766038
34.57247353340227
35.606418691902924
40.890963517692654
47.026088786104026
50.553529802509864
52.724657222021186
57.151659911533024
64.03905588714608
69.47253881465997
70.91129150725249
70.76425518984996
72.98703110909912
77.73161249605097
81.18801021859551
81.0877289011691
80.0843184850084
81.81501790004312
85.28795173016383
85.67243961513155
80.73653744079373
73.8000411840658
69.38125662769295
67.80075885499116
65.13897645352162
58.38000412121746
49.06033568114728
40.81791825905546
34.563413315776515
27.76217442032901
18.736175659866404
9.486707022902875
3.2691234380854426
0.7782914923684929
-0.4362180236197917
-2.7646125825414245
-5.951077390591238
-8.210195527979321
-8.728208767520984
-8.507185432184977
-8.93601082449215
-10.303977787206504
-11.899221322457677
-13.029411139796437
-13.676638594724231
-13.86948030294683
-13.292116402740476
-12.052303705036234
-11.125837501326501
-11.594928351376037
-13.107033146483028
-13.887306122546143
-12.855908282546842
-11.043133947054354
-10.445484333216843
-11.304611403121829
-11.560075105699097
-9.666290902131445
-6.911700062687865
-6.065037083921792
-7.925034581187177
-10.38592267667963
-10.995323556667419
-9.739552166445419
-8.855858623657094
-9.49485062739565
-10.098428751184073
-9.086808552198853
-7.570428974660913
-7.952609641212467
-10.279302553222294
-11.94968416827694
-11.290263557579323
-9.871958654833346
-10.371707090651315
-12.671226128997214
-14.125738239301139
-13.34433958149014
-11.610762183545908
-10.771808933771638
-10.794479229342365
-10.212076204832254
-8.60815749601962
-7.49582240413479
-8.42611474801391
-10.734195969928923
-12.28120162393068
-12.094025094686835
-11.15166049777053
-10.509090548232104
-9.281180243119078
-5.845412283536129
-0.6677636266863636
3.4948901888349093
4.301394818191526
2.6655902758764807
2.4411612746809794
7.196554018415176
17.353206809429643
30.02546125834539
41.54641469579492
49.41537770223991
52.16126304193132
49.25697828213912
41.897748326748385
32.96088197771658
24.95814309991767
18.16705813133687
11.113402932847421
2.73215561820236
-5.96025815159355
-12.928975136085462
-17.566312642223323
-21.256805709730294
-25.240203060121914
-28.338327087000028
-28.335013903021885
-25.374560008807315
-22.45043294011765
-22.27181392246915
-24.19589255663923
-25.325428160719017
-24.469039956060534
-23.61036667038151
-24.865480937949233
-27.042115540945336
-26.927404296357047
-23.22772090765384
-17.64343523957608
-12.745932273951606
-11.030983746816384
-18.06823882476607
-45.1870435444205
-103.7296645235343
-190.76830385300087
-278.9838296901983
-323.3475866072761
-281.0656051908839
-135.2937225338645
84.95588369051659
308.68931661081047
464.42295481906547
523.4825940966697
494.6469091167505
390.96717443469134
228.44446863882098
47.14698314879658
-97.9682603869429
-172.45218632726497
-178.9121596258704
-143.19841643686385
-93.70097704963715
-50.45773577871974
-23.334285233198344
-13.488462107006498
-15.225694452949625
-19.80212633230753
-21.167884318072048
-19.30189502260458
-17.589216441469482
-17.223395687070468
-15.927366350785675
-12.025299507290885
-7.583058611374771
-5.887741577218182
-6.5517509113130945
-5.48144748772024
0.027872604087120667
7.51337962568409
11.955663892310389
12.198500268994263
12.56277127239629
17.11177661766196
23.744461043667343
26.027439626425856
21.350439296723916
13.56953533364262
5.625244400882446
-3.533740430596612
-11.62610653453574
-12.33921334894602
-5.506574540653584
-0.1400199030847631
-3.599273798664747
-11.542789420862473
-13.555927931924646
-7.372019150157387
-1.8416590598361666
-4.756102944257346
-12.106441973096159
-13.676611130426606
-7.128390541281464
-1.0583496459856159
-3.301791152940602
-10.343600596058895
-12.363513061614697
-6.711018872787821
-1.2337482725088411
-3.47337246699694
-10.31316196420594
-12.392262368597686
-7.12379506279702
-2.1039297332751192
-4.49660509563726
-11.015130523545306
-12.586613861164144
-7.031157060418569
-2.13053897712138
-5.063332030543119
-12.120314534536591
-12.963266143922647
-4.13030401670153
6.0444854297081125
7.551252227564864
0.8889583417964887
-4.576136533816735
-1.9188741284727584
8.082266681105946
20.679693254285098
31.755873592322047
38.677609461608654
40.19592927262816
37.57910830495101
33.96980141116374
30.87631085694406
26.29130373043773
17.793716753826047
6.686797491279926
-3.0352262356042203
-9.717244922980086
-15.853102877037209
-23.867306175615163
-31.894528594169667
-35.82537971314486
-34.96156569729662
-33.38566134238932
-34.79240959932273
-37.845902199793656
-38.521942892902146
-35.952620321305496
-33.697482183167274
-34.803398420377384
-37.62762468139647
-38.20710741372915
-35.672980351233
-33.27946619788136
-33.72875364404951
-35.30548245793642
-34.11834032921983
-29.409358646049537
-25.68445359304502
-30.77629729768097
-53.89205180031195
-103.41287830479294
-179.54803592822464
-264.5481825545508
-321.1548341875594
-304.85371668329907
-187.09812711722589
19.090309397450305
251.69087176370584
431.34256704069236
510.20589646739717
485.15617806596714
376.0628164386034
215.0898213601615
46.674467967579076
-88.26938089311477
-170.60276953376308
-201.99834888497932
-193.31072946018747
-157.95317291728233
-111.59797547242165
-70.4691412995182
-45.00622483967234
-35.433927590207695
-34.73527275846922
-35.78233212523314
-35.74112965809718
-35.111287135496596
-34.460728931184796
-32.781186520757586
-29.0515888281712
-24.355124146122066
-20.913533828495627
-19.370770299060673
-18.055639300873114
-15.39842045719402
-12.314822637059967
-10.79575815783121
-10.634308149226499
-9.2059441530075
-5.016603578388578
-0.006157283943814429
2.925487167737879
3.7215327333969626
5.284984136817943
9.590132136908888
15.023121506471675
18.92164722812553
21.497423223735016
25.417425282368033
31.45292853129224
36.6965816059927
38.55652211941766
38.62808183739473
41.058684939795135
47.662592801840674
55.74155185056293
61.25343640614404
63.29238070899845
64.42061419127307
66.59801987628518
68.47708151513592
67.87686675593764
65.43228831002182
64.15795391791876
65.16560927153654
65.44489109621257
61.40473418688864
53.36946508019582
44.93758494831808
38.0824068781125
31.026857726932988
21.960169935442437
12.63886021496842
6.609565233586846
4.231204446049733
1.2756241811221196
-6.167341397930952
-16.528165647221563
-24.227777061908185
-26.616537964619503
-27.15845285435018
-30.214782472370363
-34.98502459939618
-36.55121311037482
-32.72024996958002
-28.178731610528043
-30.137746157896768
-39.95182817973019
-50.13290424184204
-51.55391526358377
-43.9110484490066
-36.12753906494965
-34.98487190510348
-36.97555093317953
-35.075308312125536
-29.71237476293304
-27.418929505056433
-30.6273828709977
-33.97203132822672
-32.08139512704576
-27.38782218871409
-26.517116040352608
-30.675834960127485
-33.671219327257056
-30.389526927350715
-23.70926829760969
-20.081690985602936
-20.930026203269097
-23.113768607211426
-26.19783998885762
-31.757783793148718
-36.82115066623757
-36.08874356091948
-30.044234538758506
-25.40486345570493
-26.2124983631057
-28.651028621502256
-27.300141907060258
-22.99210816105895
-21.509405253735057
-24.854305461567854
-27.669846341737266
-24.452399877518346
-16.988609341440053
-12.2936081594823
-13.523045820999164
-16.006204454142228
-13.94246960083056
-7.9295742508907505
-3.2351872965323465
-1.0227082593930272
4.253138548065174
16.70261067983632
32.01507379778442
41.06106587780444
40.06792145260826
34.03345753580281
29.31081883920335
26.231905112007162
20.363133347633944
10.055136794406671
-0.7430783802292611
-8.140241454804043
-13.413928250337465
-20.69033453693991
-29.821343631661502
-35.358516018307974
-34.00384265560748
-29.396531831892283
-28.017163382798643
-31.24478940693761
-34.32040207480595
-33.444723286671355
-30.670018942094238
-30.76889052849003
-34.07276971806026
-35.723763419785456
-32.669986307934025
-27.906303415640597
-26.73506254709653
-29.652086364389366
-31.525191118612682
-28.169690456865993
-21.966761761216667
-22.09353133449855
-40.00536898213463
-84.38109651404747
-156.03412427719314
-241.440665493396
-309.8950809922161
-319.0369783897345
-232.73205699509998
-48.74101156848478
185.5658688188814
394.34060035888274
516.9406208541268
529.304839864231
437.991239429502
274.6349644735797
90.1933302310753
-63.862742685651696
-157.36124541050944
-188.14344804070575
-173.31203601585094
-136.11303504789464
-95.0518150106571
-60.27316129402009
-36.23151839493293
-24.369674100353713
-23.448695894467974
-28.28282148021684
-31.587964826402168
-29.311149072048277
-23.417252238755918
-19.019753029925212
-18.204370233937553
-18.445301834234897
-16.768861977473353
-13.015121164868575
-9.33394706372352
-6.922393762905818
-4.734681631575546
-1.4499635851329327
2.6541453114670674
5.888310952747165
7.739910488359731
9.686248082279004
13.103441074270895
17.723649387006425
22.047619719760746
25.50170473652811
28.771233331889817
32.19177075172502
35.25935278479146
37.37115825938875
39.340078704966935
42.96689447705833
48.785653232990896
55.171862712883325
59.84335930788192
62.67032380141644
65.40616727826972
68.8790080137509
72.01481288688205
73.37276862522506
73.49380714824449
74.2416801431363
76.25580224554656
78.16888061786348
77.80877796987383
74.75525463004132
70.59539503231413
66.4353160133941
61.51210555998413
54.38135240208761
45.2616332441881
35.94601485372651
27.988636401374876
21.494905524870514
15.175282933735646
8.397613745855946
2.0625659540817067
-2.649394729478372
-5.740577511632795
-8.624713606047418
-12.042103994266208
-15.271597300673147
-17.507847402778065
-18.804197819167914
-19.801686784927735
-20.46039247781806
-20.367410630086603
-19.71733181137593
-19.201564150290054
-19.510685014537582
-20.32910445607022
-20.66669054104125
-20.001221282132366
-18.759283412513998
-17.963697490109794
-17.78142299653081
-17.7337348390583
-17.713307657962638
-17.74130287150108
-17.563989298591135
-16.55755066988715
-14.800325784746164
-13.401919334429113
-13.401461125767462
-14.840015916587728
-16.21936256902508
-15.952228369235534
-13.972272321926624
-11.617605159447127
-10.435382267327673
-10.382549619179391
-10.382921782427262
-10.078191699719138
-10.059619950132042
-10.929671085402852
-12.052641183922463
-12.32198893205775
-11.511418260148808
-10.331539253693615
-9.689885791345763
-9.519883019189788
-9.214277010248583
-8.590169323034889
-8.113643634832341
-8.428652411472871
-9.097334478287342
-9.145948465871559
-8.397158697833412
-7.585921202329524
-7.476893798578825
-7.845806479397358
-8.385730489351245
-9.258027390392106
-10.145925579080744
-9.854207921348461
-7.139194898061471
-2.7570457385352105
0.7486278547251912
1.615839077476835
0.5292397972094103
0.5426168583893952
4.59280789469696
13.275071233917185
24.66520883026276
35.665696480755365
44.0108973726336
48.315472287835405
47.77984399962813
42.80668310910646
35.09881294080889
26.889661814834835
19.042661780337166
10.764785554924128
1.4621387025225452
-7.867050578602057
-15.272402455909004
-20.322149471079847
-24.289120764573106
-27.99626831134978
-30.504947718561944
-29.99214768729729
-26.779711808257517
-23.750585240135166
-23.37222856039971
-25.476257562227865
-27.809927349466005
-28.951103563758274
-29.370484375126882
-29.871762667446742
-30.039124210524886
-28.573623316589597
-25.70063911625269
-23.082032113926402
-21.50474181542111
-21.13523470253619
-25.787397111642115
-47.11992606158373
-99.0939544638988
-182.77436785034166
-274.57597566386505
-330.2119249741089
-304.02745757089485
-172.7071679989015
43.69373751049191
278.3585451232678
451.1311897028596
517.6249905667362
483.50057701261073
376.0892302212886
221.522801356144
51.775812375200466
-90.88161639856541
-173.1831155986604
-190.12523443819856
-160.69717123033476
-111.05342930720343
-63.89051662571784
-33.188943339341606
-21.63019275013056
-22.86809791225288
-27.734031867747355
-30.661307785023634
-30.918438223138025
-29.735484046031228
-27.632678599961164
-24.225908868110498
-20.37020374964184
-17.97447735247561
-17.58548975313869
-17.359272061772952
-14.798436646563651
-9.909768880429555
-5.00539065350784
-1.8620365598202868
-0.11515747446178559
1.8478443848574604
4.619143302859913
7.680118463281614
10.600524338908869
13.617168017756041
17.255209187603278
20.982912958145153
23.65646449751965
25.126342563899783
26.978879461909244
31.38752106587691
38.48620994174905
46.088333849487334
51.716845882294
55.13510307279471
58.59308788538887
63.43060220376118
68.5002752852489
71.87558268715395
73.2735770088247
74.37117063675346
76.10721285330382
77.56423793290101
77.33031637217952
75.49875423419545
73.90148750593814
73.37228802862974
72.41882708788722
68.61708337455248
61.24065729944857
52.0959962243139
42.92383334884687
34.07650433210858
25.42888672856439
17.471881519032898
11.082822576306679
5.935296153206032
0.7227859063161488
-5.421417046073995
-11.793567841927244
-16.546844502263106
-18.957818305742617
-19.95252305496959
-20.86831068631844
-21.926467450601677
-22.217906633597774
-21.660785439493146
-21.307625176277895
-22.139409843209066
-23.84859119484105
-25.03419366969389
-25.09516403338795
-24.584529526281717
-24.256094361547863
-24.047984596198518
-23.219646555322466
-21.74053636993426
-20.237169577309544
-19.407899529410027
-19.422908539651985
-19.655313810695077
-19.614680494851285
-19.257615247077894
-18.819532244714523
-18.246216915926
-17.205562538130543
-16.085157743593665
-15.629123869239482
-16.212271649013744
-17.19751161121573
-17.152482143746802
-15.606349359045055
-13.570964475404544
-12.64318332745484
-13.277264895232861
-14.270660458966638
-14.59464536758463
-14.391412447036922
-14.528930264250096
-15.209107869606738
-15.539469284917713
-14.977671627327812
-13.967838911400575
-13.546335966764708
-14.070249060749713
-14.751958445635044
-14.89200250762968
-14.429370066144546
-13.872189181248347
-13.394655129779082
-12.420673401410262
-10.785060427769775
-9.302257684378992
-9.365399617261417
-11.123897029508475
-12.600768046762195
-11.59319431167081
-7.494644654725214
-1.9267052580318214
2.7406003302732316
5.323005726343081
5.988962117705319
5.841740843780535
6.2295181416215
8.892502268833011
15.522428355915867
25.872222093288396
37.32401846077823
45.947100649316646
48.915089959687286
46.36227856732673
40.52884379136431
33.623167754953364
26.001068288689254
17.17125411143428
7.706507285214525
-1.095315858698805
-8.373755426169799
-14.487200079459802
-20.045229284159525
-24.721176351342447
-27.580358054639845
-28.025697778363796
-26.97831726470053
-25.990137652865016
-25.606340857133098
-25.60670383514386
-25.93382063840923
-27.113049023746388
-28.93888678367432
-30.03245568645737
-29.441897952619225
-27.551013733923313
-25.94136283100309
-25.56729098527761
-25.29550357965912
-23.023023823254697
-18.893292200283327
-19.53761813860925
-38.00090321671285
-86.47879368549685
-164.53789772436974
-251.1515346134641
-309.20817281388906
-298.6965240228483
-194.52698957570857
-7.533922492801985
210.4392431681214
394.8700820017857
502.52179074215536
514.2297555146932
426.7352981165653
261.49686149107316
69.29378446532945
-90.9843824970032
-182.53283987407866
-202.2918236385658
-171.4376019345277
-119.70062013570792
-71.73745087762066
-39.87161063665902
-24.891170810170504
-21.639916117253808
-24.815333490028898
-30.252934479507633
-34.21809078242579
-34.29748358181477
-30.5096166344344
-25.20615093163486
-20.599506831953462
-17.012894183236455
-13.65852809326812
-10.040800245999234
-7.029527748763581
-5.796434743896663
-6.233057678614933
-6.663095942452456
-5.035476245697249
-1.2139628603451076
3.343707539708199
7.558998124902503
11.434430667775278
15.302795842062057
18.651539338442362
21.092593077668013
23.38995774759652
26.68347056863469
31.291725043534683
36.207565763659304
40.621942659581315
44.825660994484664
49.4132487550352
54.43616954163899
59.022328039761774
62.73799502840279
66.33551417119419
70.58949797750144
75.06868897244092
78.18900271666871
79.19330740711885
78.84954043189438
78.38656509592371
78.34444425430652
77.84653353028637
75.90553123352564
72.45223961012903
68.08000069056054
63.27650835674617
57.29779941560645
49.274111121815174
39.72883424363221
30.250054490619295
22.032955932350717
14.633487204944746
7.281083961432909
0.20494120550796646
-5.966897506217357
-11.203886959900885
-16.22715727137229
-21.007870376338722
-24.555615814003893
-26.234858658370754
-26.49723688944501
-26.804232357336062
-28.075428739756823
-29.953610282170224
-31.502538394609232
-32.14647759661224
-32.24293141499709
-32.029978410889576
-31.381863559474823
-30.612946883372153
-30.556816986766677
-31.81136854727883
-33.3620247031505
-33.53954512490323
-32.07327951277714
-30.198337428443985
-29.332646699947837
-29.357594229917897
-29.20113912523283
-28.436970113641934
-27.414751135568757
-26.593394126919904
-25.615989504052006
-24.010292788875773
-22.163040607893244
-20.964490828551494
-21.0957157305247
-22.119465068629477
-23.154491755545877
-23.91994661369566
-24.55055330336655
-25.063487065174265
-24.73755602271384
-22.99882256684594
-20.42678422910159
-18.54411131388871
-18.722242950193017
-20.34762487597917
-21.54002731665216
-21.487765513692874
-21.168858439074054
-21.983232845222968
-23.572126555915176
-24.392837573283924
-23.639966830530845
-21.86559781871643
-20.31155054978995
-19.463903580392977
-19.252030217144057
-19.52112419528891
-19.69344199871893
-18.749371789322947
-15.506914984657026
-10.266075505946363
-5.251567032539801
-2.6855298161794363
-2.8825100424089576
-3.6471721293825214
-2.34060459573302
2.2712575081425195
10.079304623669675
19.935976367106406
30.000150094182064
37.46933692178137
39.482652052238606
35.23656730424607
26.866641067099703
18.222620592811804
11.474958796772519
5.557457457400478
-1.8162360087784655
-11.15898555921605
-20.280972552567647
-27.113444977091724
-31.69429852380447
-35.1488203573525
-37.88649884116907
-38.774425052215335
-37.14853658362301
-34.40249659528792
-32.86282060853328
-33.60360127736005
-35.28589302963526
-36.10157618782975
-35.812325311411904
-35.55641602554467
-36.11766038612713
-36.554680906349205
-35.75827852325998
-33.83904352732057
-31.502197561391373
-29.214682711801835
-28.314426549180023
-35.40604835504829
-63.42478628415337
-123.13592475719366
-208.7557483246006
-290.4163035724945
-323.2625239370793
-267.32441819444193
-110.58458534539866
112.60455092793691
327.3336653008148
459.41702739953064
481.599034459055
414.3081642947089
290.9760291975448
142.10511614498432
-0.44477155199470886
-109.6265300167889
-173.9137193059157
-194.86906295506296
-179.93591363434913
-141.7720529230495
-97.74509375504044
-63.75457072649547
-46.21437019519546
-40.530290166008626
-38.96754709351701
-37.73413208824898
-36.67601049754574
-35.614659069109706
-33.08793670765471
-28.64405439830933
-23.634494472430184
-19.750078670473872
-17.543418007162497
-15.999286527039489
-14.143046007678866
-11.91542150785233
-9.673716199714432
-7.323324781898319
-3.948922961858477
0.6937056743684593
5.506777895877779
9.10488179143588
11.470824694414627
14.305936526395607
18.64074860175227
23.55415782186146
27.325378382441187
29.489399957870752
31.631931945221606
35.285754170483536
40.33081204043414
45.43302424212176
49.836775197231425
54.38173881575858
59.76751024248431
65.3216456698628
69.44790216373669
71.38331079605138
72.48552812741312
74.4100691874377
77.20828893619185
79.32698136549661
79.64482957675435
79.08523063614626
78.65389049971168
77.57952816406937
73.86852472468485
66.81182300267395
58.4274022770329
50.861788812897416
44.169545529234696
36.899418377353555
28.350903706951016
19.949474145117804
13.361381253956806
8.592418417618193
4.109864438667948
-1.3055831564828888
-7.083312693749748
-11.879088604081346
-14.759218292935447
-15.816531762549454
-15.852225578153615
-15.59590662076971
-15.87072597273349
-17.182050665047758
-19.436248396931134
-21.808247117792238
-22.84188154723993
-21.942781800897137
-20.03742975747869
-18.88039122254989
-19.18809731949437
-19.680270783660454
-19.052250095883323
-17.41585555918703
-15.938248030362042
-15.29408147463062
-14.84349915511708
-14.088507154573891
-13.517416349578808
-14.02364400387078
-15.46027725682185
-16.33012486404773
-15.641910884243824
-13.725281035850681
-11.858362698654243
-11.058495088453363
-11.064717987601231
-11.111991564011744
-10.713683210798024
-10.203408185553412
-10.268027230302634
-10.939240556493175
-11.885805950181831
-12.839610390625113
-13.904408843068252
-14.91167717848841
-14.968692946824117
-13.79500551280198
-12.33805040040155
-12.116473706274986
-13.602928859576364
-15.526910897284154
-16.372901867884917
-15.700491482454861
-14.586849124380318
-14.192240186237001
-14.19868437961322
-13.639104696998302
-12.24715864809851
-11.158684740776117
-11.46327065797123
-12.46321206959845
-12.48899462335804
-10.394151132352047
-6.697767008679954
-2.8611180793804545
0.3876643211907119
3.1242189574807475
5.58476864352724
7.665978203550969
10.132856516569076
15.391204393047376
25.03127642316435
37.33237762439804
47.539431461526135
51.4736519433874
48.56817181899415
41.15680194414446
32.19584572355583
23.09861131453551
13.981379413455691
5.23629596614806
-2.3463749446078324
-8.286029762497028
-13.286391850862119
-18.25518811077672
-22.81155598486509
-25.753261161590135
-26.38129319079744
-25.8586184854848
-26.035724029738926
-27.032218410340953
-27.50871343042455
-26.832758936148835
-26.35599716430262
-27.248335724702866
-28.381433410572836
-27.82620081097127
-25.232418620725106
-22.57515237641443
-21.691743906102285
-21.651293717232896
-19.939560144970038
-16.984850282856613
-20.876303748136653
-45.57417281704507
-101.49464298118482
-184.1659614425426
-268.8394357517725
-316.88751856478467
-289.4859513935178
-166.23402896318186
33.324373732500106
249.79002160953036
420.79813046911676
512.9090581086188
512.96173251596
417.45073070420943
248.31053821546902
59.09793817641407
-91.14755484207726
-170.2305892484629
-181.19840571925644
-148.57550902769108
-101.34466914367097
-60.83212557375394
-35.65594255813518
-24.121150263437162
-20.49055488247132
-20.760695141395903
-23.078556816664857
-25.352745955437467
-25.197446057888396
-21.84251890217225
-17.46508687117945
-14.831909769134137
-14.145745830244184
-13.218278136819611
-10.222015903494219
-6.106328065318931
-3.0520614742624916
-1.6484058663747112
-0.4964840523606512
1.9821009330139903
5.288072402838299
8.01121350741595
10.294884917625938
13.572665015391722
18.34979927179027
22.846437587398196
25.371273623374563
26.697377291537848
28.960265884535172
33.13051058883324
37.83198603371687
41.52143301326696
44.49390931970642
48.2577573779752
53.833047283107135
60.35931448647641
66.21886783417185
70.53827665152232
73.26186023136516
74.79368353251519
75.44355455569729
75.78938250886243
76.48245459116936
77.50160650370611
78.08755431533994
77.0500130829931
74.0690775415534
69.75289207076128
64.65943951781746
58.92016138818375
51.978635124189196
43.71189891100077
34.98586119539011
26.732972446392626
19.188893826546124
11.738945444697144
4.235867864773796
-2.613038686451739
-8.22231612689454
-12.77134546403542
-17.203287812449148
-21.579676135330125
-24.57129548894385
-25.09945909401717
-23.818426103521222
-22.91552165538769
-23.603618989160104
-25.121696594213155
-26.08794767020043
-25.986843858384148
-25.859319624779097
-26.679160166641047
-28.01987359414668
-28.56870319033271
-27.488142210549302
-25.635913920078664
-24.273245355996522
-23.498260821464104
-22.67299399511885
-21.746646557022096
-21.65000243433341
-22.579731999793374
-23.364424507140562
-22.74659899896275
-20.790775177502884
-19.12640581600186
-18.91444710519977
-19.687067637166855
-20.1501197603138
-19.629896045727506
-18.907927388869364
-18.788544474647537
-19.204854039536546
-19.698070293512707
-19.97344932662247
-20.239207689094126
-20.35202779663504
-19.840372877788322
-18.83462207793642
-18.319826164544832
-19.402239002177406
-21.575066413058178
-22.84295693892992
-21.620619861069343
-18.474093121424744
-15.896737246952947
-15.300666556921165
-15.894314053794702
-16.291112170770468
-16.160737038662788
-16.404884047347817
-17.240236253723506
-17.801782982559903
-17.541048929273902
-16.956666133185827
-16.945581646894748
-17.23400083257112
-16.872967697998938
-15.740425358413678
-14.823404553197157
-15.159643790899052
-16.10928199311138
-16.134737655094572
-14.822662141568394
-13.455361101408911
-13.80888506586785
-15.908852912824802
-17.944210591178148
-17.8401817596334
-14.987839646756218
-10.833391778038962
-6.946136168044869
-3.893447150084156
-1.6267272453060075
-0.08338227638445161
0.9711750862223237
3.431443006800382
9.988798118415717
21.04998555598504
33.174716298570004
41.20256813219866
42.533406922261136
38.256673782537064
31.153227008813985
23.246199675682742
14.95713548653343
6.639922142987038
-0.8421394172424104
-6.857054347722713
-11.928366304630172
-17.370006292442994
-22.99562440936292
-26.997163251393278
-28.187251787802637
-27.740057238812426
-28.17580827905999
-30.171215028592485
-32.142079831066184
-32.50519996730225
-31.577173355293485
-31.000829472457138
-31.150534021145575
-30.735309898382855
-28.61991591408447
-25.702723944013393
-24.141626535418148
-23.90759520690871
-22.51368890503298
-19.072273391068343
-19.520560894660218
-37.537738830222224
-86.42108176091597
-166.19006336821585
-255.54267987726675
-316.54457100018584
-308.65980683638537
-206.39806444712315
-20.378027360834942
197.3386179756631
383.27439038637175
496.95192063728837
519.2139922268557
440.4867686431703
276.4367928143894
80.02919437657842
-83.67759487876548
-174.3935712426398
-190.3232360465708
-156.34791538418233
-104.64802271686186
-60.02934330859726
-32.998910656292786
-22.061262419955238
-20.628221461601665
-23.09382450828414
-26.725973311796775
-29.700378411450455
-30.35645679472717
-28.057624920619244
-23.984900641987718
-20.296721583089344
-17.87990548186513
-16.038773535125607
-13.581077252438998
-10.270347710695052
-7.084935498871803
-4.572123677373686
-2.3327632601740995
0.2863248721417261
3.175081015129397
5.701413303468844
8.147561372661492
11.27227472380386
15.125257560019667
18.670976523065697
20.99655471300281
22.879115693941383
25.832069488844446
30.532737233369158
36.07625336788397
40.82521155718811
44.46942145646778
48.183691699218485
53.136251859358225
58.904545782288515
64.10039374772883
68.46911314896185
72.79767498842004
77.4838838739465
81.30225285290034
82.63667143193011
82.03266045154629
81.42665939593459
81.71960207332495
81.62975831650147
79.44288361760316
75.34881319407538
70.42376845687895
65.04601320378077
58.61371925841796
50.57516021171983
41.63141498944909
32.9283456430873
25.1132241534318
18.000875782656315
11.176958466451387
4.886811952224805
-0.6320475951149405
-5.601817453346342
-10.511695506095485
-15.24749280199595
-18.708953624421994
-20.394814978665273
-20.99823851726557
-21.590306616518035
-22.467169048652043
-22.938023993544892
-22.768611209012203
-22.614104698687957
-23.41873166546271
-25.149755303456384
-26.34719861821954
-26.052097139298283
-24.803169578356837
-23.92449033647673
-24.051006969912265
-24.499889535283703
-24.517382711136687
-23.95161430301569
-23.286942482710003
-22.817910979214037
-22.0202710944509
-20.77798536857029
-19.84456956858249
-20.149283006624383
-21.478055487119928
-22.186653919982312
-21.268576538031994
-19.49457389534872
-18.480157553764577
-18.57773433719634
-18.486792821463613
-17.542238176344227
-16.54184670616382
-16.603640979521316
-17.61990537135885
-18.516180101531198
-19.1179282780842
-19.89590815879449
-20.826417528824727
-20.980530632281805
-19.39254160355653
-16.802785538313728
-15.189042991784529
-15.82474396753919
-17.834950578294674
-19.061751146289726
-18.55090908758036
-17.02812656878472
-15.905205437547377
-15.754977408076254
-15.951336871866573
-16.16987680188854
-16.75171954724643
-17.938528800210047
-18.804242018834078
-17.910130180035715
-15.608075257803758
-13.86858143854578
-14.199454902433015
-15.900392638856198
-16.85799840728611
-16.256136488814796
-15.121851466212984
-14.929622891895882
-15.500965908631647
-14.692827631759144
-11.063301777180138
-5.801423854532841
-1.8498457159170967
-0.5343342261112418
-0.17255303193437221
1.5175497707864645
5.785802706934939
12.834410486550485
22.15541089808814
32.05011029575188
39.29554604235695
40.87261361761485
35.89772310488215
26.868651840339425
18.117580426141195
11.747976334100384
6.379433535990248
-0.37005558864608346
-8.472104825427133
-15.659630239194472
-20.814118068241385
-24.98221747245772
-29.432837068887615
-33.282786985354214
-34.42870655977298
-32.982392911674644
-31.636170811350464
-32.658223032870104
-35.00742706597631
-35.807206880410114
-34.26695943036398
-32.132403318337424
-31.33569530611072
-31.661926555093157
-31.3354900060575
-29.6654833199185
-27.50154592474801
-25.83384157722592
-24.77871320444275
-26.384605416130277
-39.37848074442727
-77.38391770833894
-147.51916249140575
-236.2095185642498
-306.99063483115265
-314.7259683874826
-226.47954671811968
-42.99209499642533
187.6743763074357
385.1614427970494
486.89452597873554
484.8632779255737
404.41018477243716
270.42903621041256
110.19982909624841
-38.71195356683198
-143.97129954954568
-193.79108697081983
-194.01880179600462
-159.7985856809535
-111.22293783992569
-68.08083760670738
-42.156852795776004
-32.70208785487701
-31.38784514757539
-31.56262791703
-31.469465929186445
-31.55722638861403
-31.11237842526262
-28.608594937076973
-24.189293247050756
-19.795690356803483
-17.200694919377803
-15.828485990009732
-13.621395869146182
-9.945238919379783
-6.325509780768442
-4.623581498310729
-4.147896945639059
-2.2517006834545086
1.9625502879652006
6.576439057093776
9.316671491123037
10.669563716208463
13.0545957609337
17.27971312510447
21.621751683475715
24.19542603277779
25.964480761377054
29.62864556631971
35.87843146300126
42.57454452591698
47.14059869168393
49.76516192075664
53.03748732423068
58.616876273585184
65.57405289569422
71.42489851339332
74.90978764237843
76.70152075233844
77.67673050370986
77.94117564757752
77.27338638584925
76.53374716477788
77.00978000583105
78.254759091628
77.94095661155679
73.77362907454162
65.96248783942303
56.825677723350516
48.249801325439904
40.488038669133076
32.743639132947735
24.92532436613586
17.603309885775843
10.634533044607501
3.158897236207043
-5.163236105647762
-12.683322417287506
-17.24951622223455
-18.937124019085832
-19.899222916493624
-22.159229602720224
-25.404983915867174
-27.77480993121859
-28.351151390221904
-27.892334649766447
-27.717011221812182
-27.847618442326105
-27.469402804880005
-26.73560436038017
-26.88966714887061
-28.873312030026042
-31.52935007537574
-32.57112238364031
-31.180873362699103
-28.62756005781243
-26.85400401020371
-26.265695393948192
-25.801686539865635
-24.78146952442419
-23.81545839927893
-24.10024594457407
-25.504586203886742
-26.6134091306929
-26.38400498232478
-25.04838218874928
-23.775041317500346
-23.041600788370733
-22.573265015531895
-22.451597283661958
-23.12124856903078
-24.60487276826624
-25.59080840858059
-24.738241796011074
-22.61960442963657
-21.25946480990037
-22.009536090774006
-23.778902453475293
-24.418342090039193
-23.183376036050426
-21.19289292335061
-20.099146918257716
-20.032249198122898
-19.981486667819034
-19.5544002860478
-19.21848872154788
-19.270311919130567
-18.874133261967895
-17.3462003601582
-15.45789357275449
-14.720691234087605
-15.823153844551449
-17.315173675633254
-17.133850506638556
-15.148705845475675
-13.2752214820321
-13.169501727948157
-13.815807657215142
-12.84782562463401
-9.535105197125587
-5.612834025381283
-3.448599703458866
-3.1252044303523587
-2.690939721471973
-0.579145253444928
3.5534350485576747
9.907470941808644
19.392091445718936
31.577332700268062
43.03547691211391
49.145143926879854
47.59552594488033
40.62827457171312
32.651699942408
25.97884037813061
19.616712685977657
11.664201462272269
2.4281335814653735
-5.940781476333208
-11.998376413058116
-16.437769374107994
-20.87762059899514
-25.051051498714735
-27.060335816459418
-26.285889796938957
-24.85789851271199
-25.513073552792147
-28.030460544053796
-29.798645697039216
-29.182467239723316
-27.204754235340896
-26.106792851163167
-26.397955278095854
-26.67348612451343
-25.70243995680739
-23.931519176947475
-22.619314759954317
-21.232528824994375
-17.98754286379585
-14.167287188859047
-18.262736051114736
-44.358826093242094
-102.1711511908707
-185.4948988488534
-267.959093533181
-310.0865848858945
-274.03601775179766
-143.1396086831712
57.02923244333946
262.7965338593263
415.84891824497817
494.6192980782706
494.2860701503749
407.39223628485956
246.9142112630406
62.4898191933233
-87.62104976631561
-171.32974704933753
-189.1089541625428
-161.0568338031821
-113.49750421644283
-69.0854716160275
-39.47254281156037
-24.6897463538358
-19.060522073036523
-17.966504671064882
-19.614782665607656
-21.98976185097729
-22.050705314295662
-18.376160308094374
-13.03857910805855
-9.59671169382372
-8.893787530256557
-8.645530957732106
-6.76796699727334
-3.782255619657782
-1.4159161296405316
0.3945962981238126
3.154605676112005
7.402167869848273
11.626884746202027
13.886451834972185
14.598383901696327
16.16353988699967
20.086753995813048
25.27463489176239
29.656872344811458
33.016728982066
36.4908618740016
40.501425623291816
44.31215857249915
47.35295956956697
50.48966564941928
54.895231844655996
60.50974218857063
66.011121127181
70.24510410943171
73.68097677780769
77.52809996283185
81.95984995885925
85.44134607888265
86.39640428015613
85.50053385529897
84.6680161451024
84.56821904145997
83.75627503611447
80.60147955142166
75.74711547771504
70.82772612513098
65.99863151092346
59.8274862650866
51.339675175109946
41.87321514247217
33.77661083667379
27.67395149627048
21.84150540841923
14.89823594092366
8.103649240453914
3.270523046949298
-0.020144710106006603
-3.983664558252575
-9.553437451972577
-14.635400129266483
-16.77587007513477
-16.33338530351825
-16.119266803263553
-17.799042210527258
-19.632431932417973
-19.28176632642082
-17.259692115533824
-16.39638334440477
-18.029409726401
-20.048787176529252
-20.094068297326682
-18.784931497294114
-18.626415019505465
-20.196639631786567
-20.955151139283835
-19.00799624094722
-16.080551907742034
-15.65945255181847
-18.341006675960468
-20.502081674379216
-19.141396212516312
-15.898142968300455
-14.88032275159335
-17.053972820944647
-18.55278798675333
-15.996768502519956
-11.354303985747006
-9.820883192351536
-13.042800837862446
-16.653614555343204
-16.241188044802534
-13.05568071921909
-11.955054494493144
-14.52996077764562
-16.804593545507096
-15.169836027768842
-11.694710029658362
-11.608056235387949
-16.065761349400738
-19.828539446425562
-18.008936022414805
-12.700652185722742
-10.537235979793776
-13.959897991771683
-17.947032253620215
-17.18139457137112
-13.20484894406831
-12.031473747813708
-15.37246700965609
-17.74928110081938
-14.531555124415394
-9.135959338890107
-8.93353913358911
-14.970648632353068
-19.81046476297936
-17.372682801407333
-11.157045233785507
-9.794847553621825
-15.312496168243776
-20.08601354319482
-17.355703148335053
-10.33226735337794
-7.917306182827552
-12.733634716349979
-17.442838496987356
-14.943761716286906
-8.24784806278924
-6.696554886029798
-13.233946006175193
-19.859864254227478
-17.51481352226404
-6.158569363204941
6.357576673687007
12.111414086587562
8.324424958607793
-2.2327113904710103
-12.065874449676661
-12.297747667617461
-0.1628828903854913
17.088504409933
28.881412398326024
31.9020181740677
31.428742219486864
32.0802475184685
31.17228166036834
23.863896652765174
11.81365848399404
2.1845823860702933
-1.3573012896735135
-2.880795954997841
-8.335825770462984
-17.757585834894343
-25.6638879068074
-28.542121124883067
-29.124043098221907
-32.0692659043845
-37.452757451690275
-40.86689546896771
-39.474120007787015
-35.807314518720986
-34.45563437485655
-36.149737611514546
-37.27329475839837
-35.103289853791935
-31.39125663216903
-29.776971211285893
-30.81354200438745
-31.16542020874426
-27.853777381210904
-22.52886509168126
-22.113224399668855
-37.12409606473735
-78.64681802113584
-150.98937403460263
-241.1911723965488
-315.10773472875684
-327.0429964851734
-240.76788256398262
-55.874203917498
176.4701890795145
376.02018900574967
487.7928637123091
505.47709591647265
440.9177171294303
303.86284465464854
122.02382124472038
-50.2997059669037
-161.79385889613866
-195.51264358889077
-170.18520099018954
-119.39644882636654
-71.06026142700239
-38.69055304387833
-23.515866873761176
-20.849636609054265
-24.850784843496164
-30.282468563855957
-33.1703031390502
-31.912811840619838
-27.878885700970713
-23.866551228874393
-21.535346904380795
-20.444027330385367
-19.18772362290646
-17.057358317134447
-14.501553785608394
-12.181014124845358
-10.155417975288332
-8.087302657653925
-5.745903795614508
-3.0973913714222023
-0.23633036508765937
2.5703162469193064
5.107567002544049
7.541168414568706
10.372393875084237
14.10766385266428
18.775176399018196
23.73391659333656
28.17420658334574
31.798695782242852
35.060078883127815
38.77587952791855
43.30755034139304
48.10598159659194
52.41012324108914
56.25482240307735
60.252926204178245
64.57986917835224
68.62893980324864
71.67185944197911
73.65290286699707
75.07629890046128
76.20725745586829
76.780822889417
76.50957511720897
75.36694571753651
73.24810851326266
69.81287621472771
64.75841265506894
58.19588039607453
50.7301462476491
43.00802706012587
35.28793299352538
27.535702593340623
19.90183562219354
12.85052614565465
6.596165223243797
0.8175663306373453
-4.791159894649818
-10.018173268560073
-14.486113213615347
-18.187032442272514
-21.2041266049799
-23.209611769338995
-23.79861556068206
-23.287181885127314
-22.628640975343124
-22.39806287427715
-22.38308254199078
-22.149920844884157
-21.60195444909426
-21.025081783584696
-20.743438326033676
-20.900497278211862
-21.45056691325729
-21.95538897430479
-21.65580376334756
-20.41491093669184
-19.2163532166637
-18.894925773800757
-19.02805028039879
-18.864200962932834
-18.434223818413244
-18.09279631701327
-17.66529969363256
-16.6332167561235
-14.95425882244438
-13.29722856452922
-12.446674801174824
-12.657794785663542
-13.588132738170287
-14.602233177847591
-15.098289299932544
-14.8067905036767
-13.874704586222897
-12.822421823971967
-12.30613798630079
-12.504034222895001
-12.960145370854601
-13.222756533651657
-13.318735133764882
-13.465848986497834
-13.605356954303266
-13.475980396076977
-12.932117518579703
-12.19176627369264
-11.823981530678555
-12.181565429108582
-13.013039038603058
-13.796246323264638
-14.17109814473607
-14.079805232462698
-13.821535631438232
-13.859365315979602
-14.163428982960367
-14.168490913188155
-13.760840038925569
-13.547068964311908
-13.771038892691228
-13.6492149934043
-12.445490822705082
-10.828067640337348
-10.260768777373396
-11.22044570506428
-12.713639537377873
-13.492138906736049
-13.261649077291498
-12.612015449207288
-12.04786999899037
-11.316740578268504
-10.064953616734204
-8.942038966341041
-9.1024717086647
-10.536061882766395
-11.5479670524835
-10.248017616211317
-6.471050003516613
-1.987881344103913
1.191040727180243
2.661473854374025
3.7966759239263155
6.416476409026419
11.638273867499812
19.465476465264366
28.63170675736253
36.751192697884655
41.264352974300316
41.02681980918812
37.15783222680914
31.989230357527706
26.916526750215567
21.33004885553953
13.749295072383052
3.97469516179065
-5.926916157124325
-13.276406111124846
-17.57817398369038
-20.734739456666244
-24.31651547091654
-27.63483048642807
-29.01364611714342
-28.40186234956772
-27.803123280686137
-28.872930376831455
-30.84689132909182
-31.652187252282282
-30.702513629033568
-29.629912174228355
-30.16240604274253
-32.00465130454703
-33.38128979174422
-33.145940452764755
-31.34035269817534
-28.012325951109958
-23.42090098099887
-21.463595198930847
-32.829716909044784
-71.47266278293468
-142.8493916616743
-231.98135463716494
-303.0983017453203
-312.71879400699464
-228.54758987766596
-50.16275405247892
176.73541793769843
376.6616805826672
491.5896613166606
506.5062182907916
430.58152789742405
283.97086251550735
106.4248463541347
-51.76229194820452
-156.27367323895004
-199.50507695577608
-192.0849183088282
-152.84169064017038
-103.56165114201286
-63.10907736796004
-40.369123206308046
-32.91551684618552
-33.16833768048277
-35.27579624759051
-36.76426721719365
-36.29173500172036
-32.53339107487656
-25.75417546985242
-18.889221595152804
-15.548679790694367
-16.59848756741981
-19.05657785538741
-19.04276078657393
-15.800065748788256
-11.875787491604024
-9.355552551916412
-7.294701728301121
-3.6026120349958366
1.5351344053766796
5.4993166801702085
6.720290046367702
7.1381859409670305
9.91742772168061
15.386455593324142
20.739248690041684
23.60093710004107
24.711400300072185
26.54666140715496
30.059943797430464
33.96238287048162
37.30033828817121
41.54578489256794
48.7570960892788
57.933503130033294
64.97931700430614
67.20529214865967
66.72839634193298
67.92259439037349
72.0898405894752
76.26209055432497
77.38105350075368
76.14159465585549
75.42342898308598
75.86250646801365
74.89234523793246
70.31935605257388
63.28654099803238
56.57888143511888
50.83889785057533
44.030286975221955
34.86103662624938
25.367984784213277
18.648124369040165
14.490815375807337
9.155130202197816
0.19239649580327545
-9.913375077237234
-16.54276193949827
-18.74168447382965
-20.24478550161915
-24.361044973364656
-29.575317612133993
-31.886250265371494
-30.660463474544713
-29.746270017635467
-32.194104443136986
-35.91488424023626
-36.574024003175744
-33.79545975133427
-31.891711703311937
-34.03438290690779
-37.74557120639309
-37.955332936416056
-33.84923631145196
-30.314613634820255
-31.599915399338187
-35.47304665833818
-36.19557153663743
-32.553350386262835
-29.66029354639319
-31.73163839353291
-35.80272261639988
-35.38396915357697
-29.312128197426922
-23.822188989828526
-24.786903975696628
-30.06548499108363
-32.29164928849182
-28.65400726583789
-24.375534903835725
-25.072075617097827
-28.7058297302078
-28.63826142039773
-23.579827299547347
-20.120349722092126
-23.617959965964655
-29.996066316324384
-30.633939022094754
-24.126358962985226
-18.616478725810676
-21.244074803450268
-28.680854610305524
-31.205891037663548
-24.314927093680236
-12.140084953191034
-0.4701526507986723
7.366341059549872
8.061627741705426
0.15498027528015657
-10.976461330239278
-16.48649906560242
-13.536544632010708
-8.21021778420474
-7.017656303047328
-8.327385858420516
-5.925025931844054
1.1604529848721457
6.547180090105031
5.366461654048833
1.7930924386989844
4.257806143955566
14.88221165098587
27.010419902373222
34.348439058362494
38.46184572240832
43.73425133174632
48.67809207106219
46.6547277213282
35.489401188074694
22.14962916740631
14.661291722152802
12.188427823553674
6.8526444631537755
-4.575882465464073
-15.743495539896589
-19.654527872157466
-18.11916602117812
-19.248683629966475
-26.20616017415087
-32.750821302753415
-32.124640900687346
-26.316776124090566
-23.412063365741233
-26.595677238883226
-30.238034583681493
-28.48184471092902
-23.391462776459875
-21.987324603432963
-26.24077799481712
-29.96989632579123
-27.190340044826467
-19.97159426724835
-15.586035875144894
-16.50978601676496
-18.16437531676799
-20.055926132349473
-35.4327040305596
-83.4625603712761
-166.8721886564143
-258.47616469975645
-311.9874475827068
-285.654023946709
-162.66953543277856
35.59151248739208
248.69024300377646
406.5725237427323
476.2804463082579
466.39919875188934
389.0772992593475
252.96842059555087
89.04835829849792
-55.62973240039392
-150.39846488894895
-189.55480364384897
-180.91944493661748
-140.28507899729786
-89.99790958745692
-51.201529907288204
-32.219490723837694
-26.770552186458666
-24.970345885346646
-23.257629343323337
-23.496314288130726
-25.58142110509734
-25.465366093108326
-20.636233543978825
-13.800139826148165
-9.929550587519671
-10.037695871936426
-10.211672861020942
-7.2685492571327535
-2.75998249114388
-0.5712229335401929
-1.0638675980940249
-0.2752942660472344
4.43288391887487
10.661314692390391
13.873072560174453
13.606039494268275
14.28899643250412
19.34414504801911
26.892599390227986
32.07645591860494
33.431390431177185
34.487801249300546
38.61387865824254
44.917263301895275
49.816895345308595
52.17259909227952
54.636123712475076
59.55079407733768
65.69089450237757
69.72953773398754
70.94299788067069
72.20544469883481
75.77020768394692
80.1423599424649
81.7565524433682
80.02282387673901
78.33147842371727
79.05878569485434
80.14993921551293
77.61391678133546
70.722706634916
62.55861736966896
55.809799002140295
50.10485026914545
43.21044298551837
34.58144222238729
26.21926035489127
19.833827347644828
14.704047109052262
8.786642163138612
2.1294045740352834
-2.8962280497058606
-5.076152251557055
-6.1362838031239
-8.662883709136842
-12.439105782738833
-14.835048830465146
-14.544442590426979
-13.09526827026416
-13.006060733030544
-14.564838861636613
-15.797319997237512
-15.433499411877381
-14.362546881876913
-14.348822185810612
-15.426540850960754
-16.036459661541162
-15.518213409115873
-14.929561889496112
-15.5372764966181
-16.64810887593619
-16.4186854182548
-14.44260672547818
-12.308079782745605
-11.980882102249183
-13.266664715797237
-14.1416813547458
-13.533185622738348
-12.405560452513846
-12.384344331946195
-13.30310033852788
-13.39280872336262
-11.887306530468466
-10.249020266836064
-10.504787950325992
-12.205833877597065
-12.965930784036408
-11.806815718071945
-10.395893936038728
-11.038601572858688
-13.43272428049379
-15.049844647821853
-14.495568377238765
-13.078046080304503
-13.119596950063412
-14.783971712432031
-16.231486051016642
-16.29216110922733
-15.50995400582926
-15.092543616908404
-14.922652299686433
-13.975563899621239
-12.305365999854676
-11.187275499216696
-11.55260614263927
-12.632049011058626
-13.299814695372303
-13.516992207679028
-13.589466851459182
-13.473391262735152
-12.717983392804651
-11.312103387553384
-9.958928326051119
-9.3862149011331
-9.984376700294778
-11.164843594858613
-11.781615156875336
-11.226231028135617
-9.904793954292543
-9.00013502528227
-9.04748655235002
-9.589131807180344
-9.788775687901937
-8.83475895685914
-6.486723392122208
-3.092799534598414
0.1530052903384127
1.8918022089465296
2.1214590395506865
2.2388062634390926
4.291006008697075
9.780129142359065
18.96026602077088
30.48360601606083
41.28038329522123
48.32387087492408
50.18511654237451
47.323336693525924
41.367332755437324
33.70130782917107
25.144772266500787
15.971180926698027
6.461960147019628
-2.532116277546229
-10.411744813453678
-17.183853958304542
-22.984911744708278
-27.343786263743148
-29.466196735080914
-29.509647507662994
-28.65394670700234
-28.389248414095974
-29.223477319609493
-30.392873322181227
-31.302426304170034
-31.970435985295914
-32.68662215008969
-33.37629473144655
-33.500140220369126
-32.81821697914953
-31.340222799789338
-29.06361347307734
-25.5833691619215
-21.24733189459014
-20.955190428658778
-36.26189571848301
-81.02981839281959
-159.04560067590063
-252.56117781819182
-323.5612417568979
-327.2026642251789
-231.92805186112008
-41.77721813181879
192.9079753576629
397.5056582530232
516.0345880614766
529.8588847972293
445.3415401122584
285.56966723399483
94.6695116468106
-70.85594989889503
-169.7253151845688
-194.745655791702
-166.97240828227743
-117.24662543418856
-70.745009117294
-40.61542532085842
-28.220893549560458
-27.54558624466245
-31.31850409425732
-34.72741750860025
-36.214482985197726
-35.863913626784914
-33.71802460821353
-30.062569928972078
-26.031380751463665
-23.28390438485772
-22.30847537746981
-21.72581399340658
-19.825058585628245
-16.180738313866822
-12.166637577306275
-9.305342052154494
-7.731194615098078
-6.526860225279333
-4.541274767177512
-1.486574002389923
2.298035128989802
6.61928072750808
11.17148662911292
15.469590908418853
18.870789806071432
21.203740682360582
23.24851564016414
26.091055837394702
30.208105410576728
34.90967460298778
39.472570141093385
44.04011823460359
48.893720379943815
53.87204714665528
58.278986314953855
61.816185603402474
64.96962028213383
68.00800180282675
70.42403103391594
71.28807430715841
70.52730716060267
68.93911005565406
67.03726685215065
64.90642573522939
62.29014614011787
59.116160616359586
55.52857051365255
51.21604188686164
45.618814687181576
38.4020837215639
30.04075918279819
21.56991399893368
13.762911930750205
6.953786602206582
0.8803535218303895
-4.775649455090496
-10.003221190711038
-14.71759487326525
-18.917743199683542
-22.987372095890134
-27.074194947937713
-30.62691935115059
-32.74412521573545
-32.78220639613105
-31.39424348743878
-30.027578418692745
-29.553517908147555
-29.70256199005176
-29.593373001784922
-29.157916108682322
-29.089586528067443
-29.823123343896228
-30.913941881034564
-31.272644642812093
-30.449666634613195
-28.815685771944008
-27.095794623392898
-25.88828895661813
-25.223358089316037
-25.041602973049546
-25.155125829536114
-25.216489488147307
-24.82125244610794
-23.48594836579794
-21.614497596234138
-20.457723048889296
-20.779694178578307
-21.758157100885423
-21.570045707530078
-19.65899726043043
-17.182389163599044
-15.689377988645159
-15.80477701664306
-16.859242234902112
-18.050116512774938
-19.09289693592719
-20.110131975976238
-20.997834615592097
-21.089917412563416
-20.235449136269775
-19.076034882791987
-18.39834461479197
-18.347302313753854
-18.195059899005535
-17.499783725488467
-16.61991140536616
-16.166936067103624
-16.014007539899985
-15.229428676726492
-13.553526986239893
-11.771933601836302
-11.032357879564554
-11.697163922646686
-12.778841996596181
-13.353664655266813
-13.459903241669156
-13.616706080899792
-13.692337503386481
-12.753358554893829
-10.713743220759515
-8.841866363323279
-8.66918724772671
-10.28374657887902
-11.838356447888676
-11.712401390447857
-10.31616333852878
-9.444744198684083
-9.589250194855873
-8.889800273493789
-5.8688387089070195
-1.5700198258762423
1.4366998732005278
2.152059123526865
2.4348100541404656
4.44948987086528
8.765397940352331
15.086579322385278
23.56928965661251
34.12465050272697
44.431601054947436
50.58398993352762
49.91212229733753
43.46648690503767
35.251867683731426
28.189387752809086
22.013622068416282
14.8063765368298
6.112496832783018
-2.2138395771130934
-8.672141916424525
-13.848711138160537
-19.166475894582756
-24.139658942077048
-26.284470642529367
-24.781212082230645
-22.269614216526826
-22.266192290698367
-24.911715349421566
-26.802573298358197
-25.789942495817428
-23.5291162161092
-22.944408551505475
-24.163120577815064
-24.397626874145136
-22.06162399738607
-18.850990706343445
-17.397827602410338
-17.388059483627906
-16.62642807252969
-18.40605552802794
-35.77872229578107
-84.4666908997537
-166.32654769350404
-258.1957701929423
-318.1326500126121
-303.0534492960892
-188.6697065312311
10.983166300041901
235.70610861777644
408.1872311351335
487.9636564118551
482.1319270086349
404.13026250625137
260.95694694039867
82.79884280441408
-75.27518299536015
-170.04603180277326
-193.00997272493603
-162.91498582194453
-109.01963588907671
-58.33256882673231
-27.160488098323434
-16.83524902017697
-18.097011374502934
-21.70216544463072
-24.324681188473946
-26.36979366699117
-27.12027223857101
-24.313062589620547
-18.03000977814797
-11.99901178744663
-10.146810281352092
-12.095634851796937
-13.687800423461235
-12.124850420524735
-8.533872674867906
-5.623178952495934
-3.652590167860543
-0.40571191414507035
4.987191976528914
10.524343945121563
13.563617156059303
14.248116585520838
15.603870034565382
19.767914779365437
25.513055563864228
29.823416350310588
31.920485370567413
33.99564621955093
37.677136538704396
42.03800880830963
45.18488690478198
47.236092875152465
50.372535258951366
55.83863408911397
62.3595316429384
67.39008351081279
70.15708903324864
72.42720217250509
75.78967308448033
79.63095680951749
81.86848916107216
81.68924650893965
80.37131712387763
79.23389727070519
78.23981607628319
76.23268904163079
72.49492996331588
67.32247094594649
60.86204399993964
52.63999395826038
42.41018814229558
31.61700880306065
22.609301292963583
16.03858527134135
10.452436522160811
4.180569643353479
-2.551907069533155
-8.107110256660206
-11.69269943422968
-14.072253722012574
-16.592454916596232
-19.440404851522278
-21.72209278792161
-23.07921814814015
-24.01676162368473
-25.20743938868268
-26.397445593247234
-26.76162695769116
-26.386153703251807
-26.31682848323053
-27.349954942577547
-28.71424414911588
-29.017603787557327
-28.179557242987855
-27.24649066502179
-27.31132649247388
-28.371875175580016
-29.286612251481262
-29.037705813517697
-27.57675045768663
-25.777507966365086
-24.38149011002787
-23.563596676531198
-23.167432173446056
-22.852524174493066
-22.75092725995993
-23.09958864379376
-23.54655333611725
-23.520734581250696
-22.957773278549794
-22.540662996546633
-22.601660165507102
-22.801690682097895
-22.94647968580805
-23.22167826480652
-24.051734443217256
-25.259550357750726
-26.051218288907396
-26.053757964216473
-25.571000130967423
-25.147116028307536
-24.76069162962721
-24.06110269967782
-23.01579600581223
-21.865489933399765
-21.262626267458984
-21.622466352722842
-22.4521917865848
-22.660732172083605
-21.5422486521942
-19.865525253614145
-19.03528682982601
-19.629477995594623
-21.10110854907784
-22.413416289911318
-23.103144013831248
-23.211845198633156
-22.773591498803054
-21.365461635650803
-18.197456309296296
-13.58657591302351
-9.207844860108427
-6.613896989772131
-5.841238456829814
-5.523581737236741
-4.381721872176427
-1.490789751081103
4.116609218176398
13.018610328182852
24.23357253085583
34.403259795879954
39.61620698604151
38.296429524267914
32.324094488947765
25.204685743264893
18.69596562542387
12.060502722378956
3.957421890633541
-5.429998618922184
-14.251472562735623
-21.19445812071518
-26.383561069988584
-30.30069329858418
-32.70121170756541
-33.018943428738574
-31.80410881059459
-30.533678576142307
-30.427913446667848
-31.561208287189142
-33.035526039570236
-34.328723796752506
-35.414616586655285
-36.002598778368935
-35.40403074961406
-33.57352100164291
-32.00209665622247
-31.9942885535793
-32.70240786019773
-31.59013084825067
-27.746771062164143
-26.24062957113103
-38.79693828981409
-78.58693099716466
-149.36274553395896
-235.54916781533908
-302.64711622322034
-308.1346668458521
-219.85096103582504
-38.55675347768856
189.2931995240145
389.81485085569255
503.34302201051236
508.0588640088831
414.59413898705134
257.3315570442752
85.53809745208213
-56.8669656449368
-148.88774000176218
-190.08548437989091
-189.40752778002894
-160.3000368916104
-118.93559607970964
-80.4125213973804
-53.66152426337233
-39.46055599368032
-33.93116440852648
-32.88612324481906
-33.30468366128973
-32.78923607321064
-30.062975598663126
-26.04036399589085
-22.45137521931999
-19.948655079972248
-17.77496435267807
-15.037074326293043
-12.021155228378323
-9.47791129650082
-7.659446132606248
-6.008301845416187
-3.695334116423428
-0.7857796754896238
2.097855194702011
4.77012652389922
7.752647914120845
11.349146630335845
14.799104496069209
17.393431006412822
19.473302520675425
22.195581988728904
26.31700152636661
31.108692568202272
35.30014773450501
38.59403235004979
42.25995998953904
47.65570414449415
54.05409263832723
59.44650947583546
62.93571866744912
65.68894189752102
69.1075601962109
72.69447779018054
75.2082711756222
76.6776023589712
78.31025647110803
80.3849477618501
81.27637177183269
79.49248669491523
75.25076445580758
70.14118975750246
65.28132761577288
59.989532354849445
53.35087790906189
45.67329317348515
37.802597197735814
29.775705183341508
21.255741943418624
13.106524374606979
6.552665792359768
1.6114438970065272
-2.919600850048632
-8.031910347521173
-12.913460403087019
-16.065593822829058
-17.373884992801344
-18.329996238108695
-20.253392776612788
-22.511715700250637
-23.641045750785548
-23.31281024280858
-22.683739813437438
-22.912124733971602
-23.516493158666513
-23.37823276211094
-22.45666832276813
-22.001370689945773
-22.91399341780923
-24.12111346867944
-24.049250996628558
-22.648423688992363
-21.32732983658959
-21.106021192340563
-21.25714052524557
-20.795053693065597
-19.92798582945568
-19.716798259066582
-20.560628345107173
-21.15141018976795
-20.13378038210304
-17.824242102457372
-15.981945206693089
-15.940422023569528
-16.95185851596527
-17.432990902483745
-16.823242105826644
-15.989061030322402
-15.879507000818888
-15.885933221295357
-14.888686195200625
-13.031698464768668
-11.896206467427003
-12.733821245809157
-14.668898811434383
-15.81427489712257
-15.354800123552485
-14.39461371133865
-14.451051236468603
-15.216472425216947
-15.395243443376522
-14.720375833737748
-14.357368441472012
-15.17519150383448
-16.163537503917645
-15.891045445432255
-14.400077670503116
-13.23656942295812
-13.384737082641081
-13.513353363065598
-11.643716147028172
-7.415624212702044
-2.4952704252105904
1.1413384487833806
3.3284052576624608
5.226785643800829
7.801645753986543
11.375798839630253
16.792237708107063
25.691647460318578
37.84821245116301
49.7766117304147
56.52723963743995
55.27377569087786
47.75414793852091
38.33240990508723
30.083221141833004
22.57097552994233
13.66655720274563
3.275165785587998
-6.285944344755804
-12.869108377648974
-16.77243759117409
-19.794270402632293
-22.549760486771955
-24.30623245690247
-24.680197548357675
-24.88570642608204
-26.27181611810472
-28.052073416279843
-28.422559231427616
-27.082719536824374
-26.08173558876083
-27.399768581692072
-29.780311340193933
-29.86186042035223
-26.268162273399057
-21.681659787101918
-19.463942318552746
-19.047557285196987
-17.454365054738304
-15.775105035735235
-24.126674430562016
-57.783916404513036
-124.4548415726275
-212.52545400621983
-289.78114978212153
-314.6584432866751
-253.06395329364813
-97.73544648387386
114.2883085433774
314.17278499665423
449.35810429020273
506.4094247032709
482.27397267380786
371.4030285474197
194.62845630299634
8.563477723888312
-128.07893721987983
-188.8189159822286
-183.16813760805982
-139.38029557646445
-87.27796831842936
-47.28565748524251
-25.8775241761451
-18.918146223406062
-19.080776448011456
-21.761529858390343
-25.220932022695116
-27.553568973121962
-26.53904781636907
-21.80422404781586
-16.062158587984904
-12.645066375509513
-11.822517631325145
-11.102384474352178
-8.551476277780218
-5.236148724725024
-3.361308327219586
-2.825978867100245
-1.4338149171055585
2.3272674868874037
7.247492924159549
10.998899721200862
13.164750459100453
15.273523907182264
18.719889781052046
22.998530816596308
26.761530737870707
29.950316521501037
33.46876342080959
37.72389161704219
41.85521352243643
45.063187343010796
48.16957973136485
52.65730513276188
58.88299130122087
65.25932664880914
69.8396511933486
72.53827955395397
74.91950966090575
78.17413493694546
81.26303969582774
82.31311388808413
81.29100588058836
79.76405884206288
78.90484041637602
77.93875781240888
75.34816048635898
70.98831337365559
65.67715231838447
59.70297070940701
52.23020129659952
42.86869939766397
32.986022491138804
24.499489228750953
18.155798615581798
12.753064331704588
6.828935266332807
0.5840952768820209
-4.814467288628949
-8.789538965313756
-12.232656890544828
-16.204689376206098
-20.32523035443077
-23.425504062904594
-24.983828063099736
-25.90404068790748
-27.1114962449175
-27.976989931661358
-27.29628249387897
-25.13399738717914
-23.284240147831937
-23.13413736355094
-24.089613713429006
-24.73572617000703
-24.397804683124747
-23.656985181201666
-22.912359340727754
-21.614359768239872
-19.673365117014608
-18.1497750273837
-18.348557542710004
-19.914085870866227
-20.919829534380387
-20.313084334618555
-18.91694758287218
-18.297649333755906
-18.68474930067582
-18.85733199700818
-18.0593794107171
-16.883381891137013
-16.7164775446318
-17.802752468538557
-18.733167973755535
-18.460965244326957
-17.527099016823374
-17.35901686750302
-18.194233861386152
-18.76044368934159
-18.208977473706454
-17.047134410405317
-16.49559621940802
-16.697364141936376
-16.57532772759366
-15.754855855920868
-15.204159881024276
-16.129626161042182
-18.045069463544152
-18.95134287109738
-17.74997543203477
-15.463458659330506
-14.38887886233208
-15.452817602288953
-17.214798758371323
-17.953242351985306
-17.557021067456432
-17.3259940454856
-17.684169981537053
-17.50156227688694
-16.020532956840675
-14.030863222028604
-13.205849167228754
-13.984862997037872
-15.090311793653317
-15.308848983341374
-14.641843135699176
-14.024366866601735
-13.660645959561206
-12.518300424029636
-9.719024077326404
-5.746373861202692
-2.5078645990256883
-1.2586325548396449
-1.1305660714260553
-0.03693655559936171
3.797585120205602
10.719430963018649
20.20130228196261
31.127739741791967
40.97546769809332
46.24076328605789
44.6581366678362
37.79378000707318
29.699916058550926
22.6726244737304
15.845366292552878
7.374197292420448
-2.3005721816182545
-10.604450423822733
-16.136998696850068
-20.180780972593503
-24.818131259858927
-29.63293318529894
-32.02989878446025
-30.976790750310172
-28.75598722500065
-28.67897904349289
-30.932999846743176
-32.606084762145215
-31.967739285868355
-30.583798268714382
-30.88889462244178
-32.352718492386316
-32.14690232391839
-29.23859718765729
-25.74472935653195
-24.01621840331278
-23.183856037856273
-22.013609382553753
-26.277627841662422
-50.44762369372789
-107.82050962789361
-194.09032304778492
-280.4499448151345
-323.7224208818708
-284.7557362374724
-147.7978932558664
61.48028303483459
275.48061562282226
424.28806653119494
483.41502818919787
465.0163102640653
376.46904176126446
223.91021746183955
44.12437902615718
-105.01042955430911
-185.06177979199424
-194.1910342939872
-155.4090662851682
-99.36998898628605
-51.900956636047354
-26.103653659018967
-20.142340520710235
-23.716380703131595
-27.94313840525992
-29.98613927531233
-30.876797229934926
-30.892400313744783
-28.857136907021086
-24.798843751602252
-21.04856858867314
-19.862056122726884
-19.960793633599813
-17.944217697106076
-12.89552609044234
-7.610028927419371
-5.251743395797583
-5.239366472172771
-4.255919155358227
-0.6560415344390581
3.928624761017727
7.121658990733355
9.207928334557792
12.27202655014817
16.844318008006667
21.166096799715994
23.608454759232057
25.19985392965198
28.222837839422965
33.300188427849
38.927596985874274
43.35113024966107
46.99171223022479
51.587955865391855
57.340770288891214
62.27391298394544
64.51315077948834
65.03027184230001
66.50415219503289
70.0925272982036
74.31570657884804
76.74790679642967
76.95140861871117
76.37856631700029
75.89408809069525
74.60375887683935
70.96683554782086
65.04510240106018
58.32005055943717
51.714420446116726
44.64122621903311
36.04539643621204
26.60933025630168
18.26137302050807
11.846357105211894
6.353263938413611
0.24030156518918777
-6.418561570824205
-12.226972716775737
-16.32586692736449
-19.193375857677015
-21.83180583872005
-24.17717949845155
-25.516145073888715
-25.764005578611293
-25.67829692964978
-26.114453719591076
-26.804463378182554
-26.937496385734768
-26.361834748095404
-25.693767750323353
-25.641781267520468
-25.907698033070577
-25.62392876416547
-24.410417042861273
-22.760620125036397
-21.650382806048245
-21.298517162463718
-21.259480919842478
-21.18931752313848
-21.130129609112217
-21.34154286741815
-21.566566490407823
-21.449702787541682
-21.080328833652555
-20.844129514161047
-21.016369621358724
-21.05120967558294
-20.2633024015789
-18.782831072935085
-17.5992941927434
-17.730303739944056
-18.82090371735694
-19.612248916622203
-19.413053124303786
-18.845828163373692
-19.05801880803954
-19.95360837047705
-20.568891960945273
-20.33020466852399
-19.40367633542047
-18.325862672862073
-17.277623706155257
-16.510890032174295
-16.46189598189672
-17.20577508066726
-18.1976229231748
-18.309905276764418
-17.095493547174772
-15.328956659012833
-14.181668797924704
-14.218735787863524
-14.866671097188146
-15.4453927402377
-15.747374987845692
-15.757240771976013
-15.559578420761188
-15.17758612602938
-14.837192421947003
-14.660733877687212
-14.54250161861361
-14.513456176151934
-14.54580991652272
-14.773306646910985
-15.287638110858973
-15.95503043146963
-16.663778444294348
-17.027872684155728
-16.52644699116763
-14.653111126348714
-11.43832693064312
-7.86745018625828
-5.010259339186697
-3.499338555733518
-3.1874281796004644
-3.1331963053660834
-1.7616248763550961
3.018727200363154
12.066850748543512
23.70459142500191
34.437066359076326
41.05643637621446
42.68137262157719
40.33780059491906
35.39618130957403
28.472438934483016
19.789345270790715
10.370916868291442
1.440366884361034
-6.389414917203355
-13.043759217703988
-18.543915974203546
-22.592182978023526
-25.143457809873983
-26.54619802344356
-27.3981915970418
-28.25491322725115
-29.045690165534726
-29.59348464038055
-29.921006818062768
-30.19335749177209
-30.557209485376884
-30.820386400746433
-30.807496726945892
-30.212547504848487
-28.85988601894942
-27.20618334581144
-25.61020744115643
-23.78008881395179
-21.23168271492131
-20.235866872669867
-29.081656356751996
-60.24061888247788
-121.90055953975833
-206.47930831839517
-285.9169316828959
-318.65227242975436
-265.4884887707612
-112.48609517528826
108.88401008610484
328.8992693140194
480.77874512086976
532.1349644309753
479.03249716465245
338.66947987786335
153.93648731583303
-18.93238043759532
-138.11196280749067
-191.32835012322846
-189.59304165533078
-154.01292772547964
-106.49134380027557
-64.09417986573213
-36.19896921099562
-24.092546395870247
-23.44523666998442
-27.73354538604846
-30.956763399249343
-30.27654446903383
-26.606150938577382
-22.78295751861653
-20.534774908144172
-18.883158887662074
-16.192217008180357
-12.451107888783627
-9.279007322456156
-7.7315869349054305
-6.7923276985470356
-5.234292613292096
-3.201533728449319
-1.3787382026496438
0.6242749225222384
4.083787241512656
8.959406725170663
13.599349018617538
16.44756603908564
17.694317711315996
19.22295615511979
22.391889671858408
26.821057110800275
31.132396365750534
34.823400585008656
38.99937366723058
44.406689756568554
50.236337226745846
55.05864596228383
58.56322098255785
61.94129829321079
66.12218240676262
70.83816402225749
74.90093947147878
77.09592183956474
77.15345512504425
75.78083183352277
74.51762210493712
74.43294823106855
74.72211329456633
73.63754036989373
70.45515433097191
66.15647734109774
61.43611615944448
55.17243003063615
46.20899692202072
35.81997110770197
27.502299706486593
22.99236949676362
19.44712071919897
12.457047826334957
1.4010463557748079
-9.213507905251738
-14.883676932186937
-16.39777233753022
-18.375515479903324
-23.348484387043406
-28.661378685155952
-30.473969050260884
-29.0528425685277
-28.063194520574797
-29.710744174655925
-32.030083520946334
-32.033504372958895
-29.997319840005865
-28.91501992189447
-30.58898973888119
-33.242913475155454
-33.98744207197957
-32.5697571795775
-31.208468944553218
-31.355593914688143
-31.72430707145191
-30.600549401775474
-28.600806400275935
-27.67783747725373
-28.33859230138189
-28.749907937554326
-27.18225091773169
-24.04794654577232
-21.2148138678385
-20.379672286035614
-21.74975023626085
-24.336803929723615
-26.6541969920205
-27.205975598471312
-25.64274355366519
-23.153089335349605
-21.468383069017676
-20.8874038785934
-20.140672519622132
-18.893811447250265
-18.601425616296122
-20.478797841012778
-23.045000365935238
-23.29359674843758
-20.82069298822109
-18.597698316855762
-19.318989697048398
-21.790495987110077
-22.53109817745492
-20.70380320409683
-18.992057980262867
-19.828197182367987
-21.765753648619313
-21.161378077358357
-17.519891829918596
-14.625576446551351
-15.839127784404106
-19.285267272621002
-20.06168487374697
-16.99618459377917
-14.059367990100743
-14.873434790273075
-17.1710720742227
-15.254839573165844
-7.975527137907697
-0.778503815921475
0.8426630372344144
-1.651537671784543
-1.8192231554961122
3.7301514193562877
12.54378865001141
20.654501884140714
27.725038360109618
35.904760130963446
44.1131221997727
47.224199360998696
41.92997925043108
31.811779694424356
23.69787309824531
19.355885795974178
14.217651237422503
4.3516833880327335
-7.378924166650551
-14.60773622133635
-15.933468623546078
-16.540324472488663
-21.22179838572491
-27.658496935956087
-29.616698258420023
-26.034160129920945
-22.64800873482776
-24.431272373467877
-29.03533195047985
-30.519582805155434
-27.753998953157655
-25.023664793277376
-25.73151278344039
-28.115478492689025
-28.087747127416286
-24.81584587019969
-21.229126779448926
-19.64898950985994
-18.452571850416415
-16.0598489800091
-19.243936546882008
-43.911704930691876
-103.15010640434629
-190.4161588996208
-274.3607830950964
-311.3034609597326
-264.5823412156787
-122.5350774991754
86.67159720420088
296.3064891797033
437.60183581846053
485.0641219214932
452.5282579493595
356.216346995214
211.2218093836871
51.03379253753843
-82.27129331725922
-163.81987184726432
-190.14063897264293
-170.72289545768774
-124.58788041755409
-75.79731458249573
-42.4058995473817
-27.339262971451447
-22.333141353662004
-20.217608438681708
-20.435891837871203
-23.94881849483118
-26.967110969556867
-23.82958406601212
-14.945686363890974
-7.3735775981762925
-6.7393396754047865
-10.314622964073576
-10.631914120566652
-5.1060562372029645
1.3538794560574865
3.307126570649702
2.1047739587172587
3.6306743750187556
9.917392103505273
16.585767157767453
18.62438659595276
16.76165363791983
15.919981745072398
19.089407979902344
25.762713030937427
33.53552991232167
39.28488786185738
41.13001372261282
40.59208994801381
41.75079093954645
47.035841877269384
54.75942410844186
61.36783906349726
65.41104964928951
68.56990401770216
72.52635707928877
76.45113579783806
78.49799488490065
78.72439106123367
79.19967218525431
80.91706347329122
82.35204759350685
81.64192324238843
79.04267110765498
76.54609454382182
74.96710812791359
72.61898519857405
67.35808496735905
59.164330721208145
50.1981192437671
42.28070214221209
35.41401711833095
28.823525473411447
22.234062122314675
15.831476628228218
9.55059876615484
3.42698347098703
-1.6711594560748035
-4.6572139449472285
-5.716533756154661
-6.790019050932532
-9.513435520937144
-13.081954809495787
-15.242770187747654
-15.091846505254328
-14.05447162118951
-13.710179562851668
-14.077636712257426
-14.532097972820209
-14.984140778062006
-15.75822697432561
-16.469711657380024
-15.949898140099364
-13.835280967908151
-11.552306163551233
-11.233078754588476
-13.202120023607616
-15.358227874873513
-15.580569943017299
-13.830757434580644
-11.767189000935993
-10.582677025001654
-9.920761430793082
-9.030381163142351
-8.111799273131819
-8.192539370439356
-9.493187798080289
-10.705814679777784
-10.49525326321292
-9.03802896392305
-7.72667530924845
-7.278205357749603
-6.887830082230124
-5.718881969173129
-4.445559925075033
-4.601684860434544
-6.278466735399826
-7.690992224774394
-7.449853644091743
-6.170560346737849
-5.583997132609907
-6.31633997839846
-7.259499922786036
-7.372207395406229
-7.110484197683627
-7.451933369355556
-7.952218742406858
-7.0305771711719025
-4.314902538536687
-1.7987574155706119
-2.0784695883636917
-4.99259272790033
-7.175516038983843
-6.083919655350715
-3.270209233266071
-2.3430578571481897
-4.376586861779813
-7.057521478431224
-7.850624283676388
-6.491108262015912
-4.680792174015869
-4.1056577982591
-5.256986756211403
-7.598345334542926
-9.752428878209209
-10.242505600476152
-8.9645173907373
-7.308943442342052
-6.1932776203606865
-4.596522543964435
-1.0020161241569956
3.9384579485524833
7.3889097757145334
8.00621863508624
9.021182439014257
15.612530392300858
28.566901983022845
42.19006192758901
49.705233156994545
49.576518572366744
45.36755890742865
40.51987257375025
35.07038089697118
27.627773574976693
18.672670069045502
10.239936382510946
3.036921842487127
-4.416334605171975
-13.230115932415785
-21.70647239736663
-26.599708668913188
-26.756359620742884
-24.635337217718394
-23.786018730792193
-25.40965957396704
-27.81702562564315
-28.90678322827101
-28.71953582588714
-28.943398720330833
-30.159589680867278
-30.87225586546614
-29.617949303424748
-27.132766069612355
-25.54822095252298
-25.563072674675887
-25.173753438654018
-21.819644037058907
-16.52930900077735
-17.122102708221853
-37.63463116690356
-90.87229333056199
-175.02990805539915
-265.10704297675085
-319.0787866364831
-294.96591948097375
-171.06987536424379
33.86419822604696
257.1724251151798
426.88924732057853
507.3179475831549
499.94348257230246
412.65128077814586
258.249773336618
75.85614902160783
-77.86533729649409
-163.9768835976345
-179.56739251125254
-147.569565978503
-97.6791856193789
-53.45345609073519
-26.67316498894869
-17.252605524932637
-18.318252806985228
-22.933941017124592
-27.36254153379623
-29.986627750056968
-29.538014270199596
-25.386586268723633
-18.830272905629624
-13.046631933678997
-10.729159992640014
-11.386604928991549
-11.921911735426507
-10.205269055568444
-7.1896483134525795
-5.091738418116418
-4.241488144446912
-2.6914246595817124
1.2377497576880674
6.7916854445248624
11.727303299887597
15.111445591115434
17.827937043783404
20.53513895471323
22.818987101455807
24.525966928421255
26.71612134424835
30.527467892273265
35.559618713561534
40.29036362402044
44.10345431603389
47.95082892945521
52.64624918477136
57.60166978308183
61.787179007900946
65.02178013788324
67.8881459712376
70.88060042416713
73.88927714351053
76.41711874968964
78.19614458110674
79.25211097101786
79.39140205476642
78.22207974598385
75.65856078118858
72.01002430857379
67.57994738611735
62.27964578397738
55.710299144770836
47.724950012439045
38.91333041608588
30.273400392089005
22.32445727231694
14.872481904962756
7.596370084366221
0.5889905019589807
-5.624142764452502
-10.570994004957509
-14.436748159697192
-18.06398547361237
-21.99516295669413
-25.620978825748345
-27.842018684127186
-28.478017764831627
-28.350258926219706
-28.05154065618585
-27.58052433743364
-27.14953423848549
-27.23194095627495
-27.858899810029413
-28.67328946331564
-29.55515192362891
-30.6096057185286
-31.56734765024474
-31.78151728910751
-30.944752490199992
-29.608704768624673
-28.86422413074033
-29.228460608316677
-29.947359534122132
-29.640831488318966
-27.676242323138823
-25.04993384612544
-23.68822364879579
-24.48907770218865
-26.31606140685486
-27.328659984833827
-26.962032263275066
-26.18023730690105
-26.067095231302805
-26.563521678637162
-26.7229790805591
-26.019653862030935
-25.046424689862786
-24.83320235369627
-25.66134753548081
-26.829228880648493
-27.54403081911951
-27.744969168809337
-27.930099598190115
-28.211944194868252
-28.019723847481647
-27.066445588776627
-25.93363898476593
-25.313238773585194
-25.285052548476774
-25.596247510456724
-26.12879137398931
-26.86218990779549
-27.73156043711831
-28.591478728429138
-29.19554770001684
-29.36926639145733
-29.170698674079077
-28.70238342279309
-27.95433936439924
-27.131888312126364
-26.863852036558693
-27.541051412819776
-28.615556959521786
-29.045145156198497
-28.366389020087016
-27.103153512469607
-26.360605527807227
-27.045789971471052
-28.904638588726876
-30.469965121692866
-30.380610644293274
-28.393990350849784
-25.233067595505776
-21.894710603192795
-19.05753428220084
-17.023228138260347
-15.848385336332319
-15.162087654454318
-14.20595560720065
-12.654735085292266
