value
-3.959533795332334
-3.9692754666149406
-4.182274277460259
-4.450601016724373
-4.4610724141702445
-4.197900753688777
-4.016269184174796
-4.222198947760932
-4.747014785356563
-5.302759546781689
-5.72264174558977
-6.085844317349015
-6.511488594948281
-6.86155737787028
-6.858668677768712
-6.549301258611929
-6.365176214681053
-6.588175508848334
-6.956900911579078
-7.004706875768056
-6.700781798501593
-6.507866729470172
-6.7499229193310155
-7.150507694736743
-7.198395163136589
-6.858821693590941
-6.642082470559258
-6.90648174666262
-7.346919996091991
-7.397894483909289
-7.0203453589066065
-6.77814471597748
-7.065997127690869
-7.542270789758743
-7.578468555642526
-7.142624047637993
-6.899211218025386
-7.345439666684869
-8.104945894919826
-8.256960209360635
-7.1702723525800645
-4.876671071153847
-1.9617825651378156
0.661196762462706
2.1000068038998654
1.9146215982566286
0.5014154005287519
-0.8733215733595943
-0.9225850322670371
0.42477618165092995
1.9032670837397911
2.202689006246756
1.2259603236720034
0.05174885662349138
-0.18058811928230523
0.6049505727351342
1.3493990433576535
1.0779717272798122
0.000596070750126021
-0.8809986564259975
-0.8192912221592027
0.5034332197421592
3.4415204170577187
8.245915864619585
14.36294651389457
20.373807269231108
24.823539825733803
27.074648316620014
27.368954997576314
26.034006138597256
23.088568602443026
18.999791501230188
14.967413505327336
11.869465635523213
9.528619329038687
7.174590288371369
4.295491266557047
1.0808262319972097
-1.898343764069044
-4.338339270348218
-6.283842146909112
-7.61244807647267
-7.742617385315864
-6.139511046043207
-3.3334976963384504
-1.3962438817332954
-3.1064860948192052
-10.466126612833042
-24.398677877848996
-46.11710120160404
-76.90326452318835
-113.18441894359928
-141.0391069178629
-138.59709662777198
-87.43637124714661
14.21196061821355
142.30224774685107
248.74900687483347
284.35731028943553
234.82067871254372
136.29431206786683
50.00681568116159
17.67902717784173
37.48443228513783
76.15297383586409
98.95754952549316
90.902640144897
58.99991153118128
21.329255269390156
-7.205702698726229
-22.774620094360035
-29.85153918351545
-33.52625854430297
-35.61265603164855
-36.188684887670235
-35.73198007108906
-34.863328050532914
-33.70242172702545
-32.339029311599624
-31.175681510999755
-30.57747215738989
-30.461685066205817
-30.386055611566622
-30.156808416666685
-30.069084380418794
-30.313395425342662
-30.442624672315056
-29.744524683657524
-28.122424682554716
-26.39941427845294
-25.631522492690937
-26.08370486535245
-26.735096571940765
-25.89640988504472
-22.851556386283804
-18.81200341366969
-15.712409509668333
-14.359315649321443
-14.131430677968469
-14.13813458996995
-14.1603112626183
-14.174819732077792
-13.412241171511317
-10.770819264953992
-6.205859774552519
-1.005297394025089
3.4121003191463175
6.544723781058735
8.922457667088166
11.553639534167994
14.982383061067704
18.879930724932724
22.829213835448133
27.09619199009428
32.04785454270372
37.113225917450926
41.004414749262466
43.04815996313369
43.8068547041143
44.123041329088224
44.03351029417222
43.10809338282132
41.39841933405564
39.325572269917444
36.843705864592366
33.23982488673482
27.775032981502
20.56208988282856
12.773025797366623
5.699506768044488
-0.15234313050639733
-4.8437990088000475
-8.563849578436564
-11.649552043431868
-14.415039199905685
-16.82524007712127
-18.77279279443208
-20.523154016728345
-22.285521012712564
-23.69994839069767
-24.30308562814849
-23.93968004455001
-22.651437968260787
-20.876866672599068
-19.625044528306237
-19.89833271729344
-21.714770284628003
-23.873840004623503
-25.253813746397256
-26.195232825050773
-27.699630052142993
-29.512871720312383
-30.07243998304083
-28.235592131764758
-24.502830207344168
-20.7647059106052
-18.9522392272357
-19.534440608079187
-21.269101686605
-22.57919469117706
-22.845258881245588
-22.29510975751369
-21.36891967850578
-20.433847315068427
-19.72730364666531
-19.386073729205073
-19.29644630362794
-18.9289866781979
-17.80053946169816
-16.213587418106236
-15.167059559043828
-15.283869453505071
-15.946725662625234
-15.678750589204729
-13.425240646246406
-9.565062074073232
-5.67431237614643
-3.1805215727639267
-2.404077046933912
-2.8911362084952925
-4.035450616153157
-5.166290317137643
-5.560501756897506
-4.797948254064835
-3.345864253619275
-2.4718860845762904
-2.8564679216533797
-3.616832757628177
-3.5201715926752044
-2.6990213446316895
-2.278718341443857
-2.7045466541127805
-3.2823565980210816
-3.1850737707997943
-2.35872084384628
-1.3675330816976612
-0.4301066627755966
0.980824344504447
3.035189485306329
4.425014832874126
3.5755445103470116
1.4202871693348735
1.4780907877192784
6.029194776054521
13.470666337212101
20.2982716386382
24.54139119762431
26.671372696198734
27.935576631614463
28.317524870439165
26.48718601475664
22.160463308489557
17.375189176467888
14.015076295614547
11.117149481385841
6.540765420880446
0.7585989544954523
-2.9651455067191517
-2.2865902123205246
1.4606280786999573
4.638642490485326
5.147785352545856
4.174343537825423
3.8492036487959345
4.131875408352108
3.0651159289064767
-0.5111106362110023
-6.407192479211322
-15.7630008583229
-32.87679907967979
-62.14669704595807
-100.61292952235107
-133.1087466161262
-137.26238943896317
-95.40153832460251
-5.943631265055059
106.35463921717388
187.7194052970368
187.48773625588157
113.9817126842708
30.095536772923133
-17.417615922920948
-29.002149023556342
-23.65370647547692
-15.47366358275983
-10.962924020467703
-10.933542963394547
-12.74395052481585
-13.472646077512291
-12.77377994135182
-12.493846933278437
-13.430470949588262
-13.961977083835947
-12.492759064016226
-9.720633288335364
-7.538615910697764
-6.57824940962724
-5.775686234738965
-4.182855668180304
-2.3377321379465203
-1.2463209617070854
-0.6008184709502671
0.8238280895038221
3.273291205119019
5.751268178630938
7.730592116513334
10.323925753432688
15.16945865525516
21.99824774016241
27.855034551345266
29.566885513330018
26.7755154827483
21.76469267275408
16.648859450910265
11.64025230873889
6.179490706862827
0.911274424942945
-2.3230963211978075
-2.4571270022159406
-0.7723250110346276
0.033727612022858455
-1.39538937148771
-3.9067371926146386
-5.551752190444898
-5.47911633832087
-4.005931564620373
-1.897094627628173
-0.20237357400133704
-0.5512099828135076
-5.034624484161453
-15.393077533930992
-32.66064829328913
-57.720162272371645
-89.9059785332922
-122.09137045035236
-137.58863211744577
-114.969662224961
-40.07183478706618
79.89044046283001
208.25371240569137
290.2351480742977
287.93837608339066
213.0534586354586
120.61723690960233
65.3012826678254
62.590150471759316
88.30706044377534
107.42799111850893
100.05169761299133
67.80265932153732
25.965491991442647
-9.062928919053132
-29.441189519188264
-37.22898372775276
-38.797886559516385
-38.83775840929091
-38.63472839661451
-38.14129865927839
-37.907155579901875
-38.5611460276197
-39.54614320252264
-39.43323834101725
-37.52579698979635
-34.680899158310616
-32.36926377987122
-31.249554310911048
-30.831343208140396
-30.340901899565523
-29.665383532955573
-29.223570139278795
-29.058444598591027
-28.587574317968226
-27.449152964384794
-26.16465027798661
-25.56823696089603
-25.679598915188226
-25.484090812372376
-24.149880384609947
-22.238918819656295
-20.9957985395897
-20.377481388897415
-18.641382473331124
-14.479149940975159
-8.959929743691903
-4.519370063260274
-2.3602282186165553
-1.4924655257789035
-0.08467202738892093
2.879623782433118
7.339900200238865
12.71793477510148
18.230192376326208
23.089707306016734
26.764987228181255
29.101006761673865
30.351811859989798
31.290271841902523
33.054769380652836
36.185371460273046
39.7988081599042
42.48853852357669
43.900900642641446
44.540285086132464
44.381791267077375
42.72330997002298
39.179567135275974
34.024864236836386
27.69424740863315
20.61163909764705
13.623317959289292
7.939345680898371
3.9294987662840657
0.24133893602067968
-4.892670274583179
-11.377696232015039
-17.120044671769406
-20.33869273349552
-21.368777511420838
-21.881265869936875
-22.793318287497872
-23.50287568261188
-23.171185828662097
-22.14096606248824
-21.620597649242605
-22.276474894459625
-23.4964297827054
-23.96281074094049
-22.982126866873745
-21.2955327910757
-20.354930347731873
-20.82635600360203
-22.172158360072043
-23.697255388685868
-25.36836340061088
-27.31349389141532
-29.192241606125055
-30.521557106158237
-31.192702211421306
-31.300591047139527
-30.783745893392428
-29.65460475056004
-28.191155726464704
-26.502307013223962
-24.526828239390493
-22.569371497288223
-21.086725514162296
-20.100386475398935
-19.256716451459866
-18.036909967414758
-15.867554942430473
-12.751728362353814
-9.884746748073821
-8.950658597894511
-10.498257914597062
-13.458168666893082
-16.270779372621867
-17.84278265633563
-17.71840219183412
-16.23685636826364
-14.369627471118449
-12.814554266019647
-11.520326192226126
-10.351747830482598
-9.423135802911942
-8.52234694514182
-7.130582058641769
-5.143112382691644
-2.9166642799075326
-0.7298590251474768
1.1903984362388562
2.199061861705219
1.508987301871489
-0.7103721269936218
-2.7728191764223906
-2.3618966272174147
1.8669989983906077
9.28702061179493
17.43612526115642
23.28020915754501
25.060427160188937
23.220678191651604
19.372979315922116
14.5851982244278
9.314859978486032
4.473257905341787
1.1959557770288836
-0.3033935856640083
-0.8867353287072319
-1.5032037124355986
-2.2000115094272488
-2.4135730317112847
-2.278632872493321
-2.9015522639635174
-4.787652994129701
-6.4390348956612735
-5.485485340084483
-1.7478692310417938
1.3889207415974327
-0.446119913307521
-9.163131283306157
-24.486599068448086
-46.78995375727319
-76.66509150437368
-109.1712890901959
-129.0867877593804
-115.11458648579183
-52.2185026429581
55.126475834436185
175.40184428225706
258.07629380144573
263.60835223088645
196.24434355394294
104.7237678447369
44.87668883735212
39.00263580529679
67.95433110612268
95.80185910734507
98.39604071401187
73.89724115273476
36.18809396459656
1.9657963287739575
-19.540821805716693
-28.93879056506652
-31.73028503275251
-32.20619328461586
-31.516711857671986
-29.656031961223235
-27.49761084440548
-26.414749809776936
-26.61748203181191
-26.88311645912469
-26.090848127350373
-24.232974440165712
-21.887081957090842
-19.59630551787694
-17.91535733708469
-17.540459563054593
-19.006304430673538
-21.93841415330737
-24.67113062610983
-25.258346914234203
-23.257473529736252
-20.24963021016148
-18.33587508644624
-18.108851481437704
-18.230168643661873
-17.148605454141478
-14.80863465007091
-12.145459091151276
-9.530541851536837
-6.481217931632184
-2.5994627935989167
1.587149027741292
4.817621128392578
6.324621517749566
6.730989350110039
7.352932542553652
8.803381859145162
10.728466586952035
12.782449233909034
15.421786505547333
19.45227289246124
24.871175687336194
30.728167720244603
36.14702934834593
40.73826377725725
44.12499031956204
45.90516426675816
46.270148753482744
46.27518072877171
46.97618333051352
48.041644100872425
47.64049347230848
44.28079786398852
38.5542200613066
32.43971802133931
27.188546111602797
22.54931678523825
17.55343804132399
11.368267745698567
3.85744005957093
-4.053806866821336
-10.743351805925213
-14.951185244348824
-16.496178437113453
-16.181057826796973
-15.332477195059933
-15.368847556155174
-17.34406211303654
-21.165139447053875
-25.218553889889694
-27.700526372264466
-28.40845668724374
-28.475535769448207
-28.632763558651533
-28.59146670337498
-28.0283888434639
-27.349738954220324
-27.046843551111184
-26.74008338224654
-25.58228973985412
-23.54553017178259
-21.68617529009981
-21.152630060538964
-22.326155447226878
-24.713975218892763
-27.20500689256584
-28.494303610320245
-27.62557996026943
-24.366693169180092
-19.34513291124884
-14.075078596639798
-10.629747859121956
-10.574457046183714
-13.911244125019394
-19.08688667180708
-23.735391901492562
-25.90834446415598
-25.32932050859553
-23.183546170534754
-20.82480848535433
-18.985282492484018
-17.626814547902427
-16.163673358510273
-14.037878840805579
-11.281968345931139
-8.432630629672067
-5.962272954424893
-4.296194354921023
-4.141132227057281
-5.829708034449451
-8.412062091215718
-10.37599396719883
-11.233617179759236
-11.508576193709425
-11.39513998260161
-10.403123247213799
-8.363456241161906
-6.024782281451956
-4.189138836151707
-2.6700314458190024
-0.6259228226864438
2.0857240955286698
4.107794414667967
3.6698528516580042
0.7875414378372659
-2.33974179001232
-3.5817173946600613
-2.821722506843728
-1.495642382423454
-0.9591967716743977
-1.457512229746075
-2.244992568106821
-2.3849922009337705
-1.381777969879608
0.7526732886677379
3.591784340388926
6.13639923353804
7.209276536952616
6.911363037761671
7.251116331997508
10.255364664677147
15.678879209221176
21.35225413879822
25.36386396924377
27.367232253345772
28.007772641318024
27.382155858226326
24.55312857094803
19.039914796393454
12.35501927044606
7.2446515195433765
5.188556734651067
4.938242466935314
3.9991308184827328
1.7082769197019538
0.18564087069845903
1.9546198737217553
7.199029702045724
13.340688377467567
16.7384172450568
14.791628125343776
6.9498500654176105
-5.404163845811761
-19.533577145176906
-32.89101708524142
-45.788352553592645
-62.61798691347442
-87.97909086778394
-118.46469414141481
-138.31230921467838
-125.32676947820539
-63.21131065591378
45.94740204944367
173.16706586805458
267.56321538065464
284.52284534930004
222.2174334964766
128.20643858467938
62.458558243266566
51.88127025209772
78.62262870386245
105.00931650323037
104.53065245017837
74.62294792688093
30.906386628513822
-7.151941021905809
-28.969095519612324
-35.97239117359506
-35.41330218713431
-33.06383095846781
-31.04943025716192
-29.82520571225396
-29.980607236200516
-31.89510086055529
-34.67339552829817
-36.437983207962745
-36.13091892408005
-34.749965577500966
-34.23373336201081
-35.184804305571404
-36.30147164733593
-36.176028267738936
-34.99631569544574
-34.01600623752327
-33.66498893357549
-32.900253299287456
-30.81240239986181
-28.057185128673662
-25.81896061262058
-24.215705375557718
-22.585777076015546
-20.696349702354134
-19.064850026226768
-18.169009754730084
-17.625731959839758
-16.463268041064858
-14.25993211710014
-11.71954074767452
-9.75347808127387
-8.289734606064378
-6.584366585749562
-4.311675967316401
-1.7442001172031505
0.8753853292465033
3.7675838695340302
7.318215948038281
11.498200595098869
15.866635783762502
19.975318790413862
23.695300736430113
27.39743785651263
31.450797575440507
35.26719547385511
37.59661327690729
38.086413385887944
37.72237529494206
37.487538083332005
37.204069710001704
35.94851769034414
33.36071376890405
30.037003176244514
26.46064286452592
22.250772699761022
16.87171794032266
10.604933470024378
4.5836550857680525
-0.12557076931291422
-3.4739674795582296
-6.2774081122109
-9.242512195881789
-12.433138902841309
-15.639091131207675
-18.833295598188357
-21.884061758960055
-24.221882454817
-25.25300807307078
-24.909909079741926
-23.810441176468963
-23.021459274163213
-23.31342701345456
-24.29471491412236
-24.620097215194512
-23.478939021536746
-21.46497823980816
-19.83021403660713
-19.482005111011354
-20.58719133502974
-22.5870413103596
-24.6559926945578
-26.23215500478981
-27.037362616210363
-26.954997910429768
-26.217169647790836
-25.447605589494742
-25.126643835885556
-25.064335482283994
-24.694127853549467
-23.81404448404586
-22.860164377954636
-22.533219283260113
-23.003452935850987
-23.305512105678485
-22.020331835941455
-19.003640892362892
-15.92917209495061
-14.545303020765864
-14.877919901049612
-15.723575382826198
-16.183498533130958
-15.931237397420166
-14.715368039654807
-12.573974443526124
-10.307090882975697
-9.064367342958656
-9.215728517620406
-9.801184340345152
-9.536045704294711
-8.326673652820517
-7.2319596386773055
-7.08599676688935
-7.601104084550941
-7.616517818487973
-6.287489255488263
-4.238943465394324
-3.0965252935740333
-3.7379035293893796
-5.545748945296166
-7.385965593909465
-8.683743812951898
-9.37527758388324
-9.231655981249627
-7.713547302305999
-4.797634639942133
-1.5831421888575736
0.6750785214338555
2.0124941247220303
3.5076102444399417
5.655670502874625
7.668551833858504
8.606104861208383
8.927205418783842
10.564669819995505
15.086666358775826
21.71738231118743
27.559504145522826
30.01910802423144
28.73466970666134
24.9789873812449
19.94953545627236
14.374149262632457
9.10529033153377
4.907020411873143
1.6235657106034274
-1.564907397535569
-4.756057987799306
-6.794829837244727
-6.509730195851338
-4.203030089840501
-1.7637618082354831
-1.2377216527706558
-2.922264744048235
-5.0405303154943075
-5.883829156155493
-6.066563581407668
-8.161650654722441
-14.516291791059283
-26.499076234432295
-45.9097845737405
-74.48053564884273
-108.58420629297825
-134.24501755117382
-130.15214723593968
-78.30179866500542
23.769616514027124
152.80804563923044
259.4605038069928
291.7081174935493
235.15506094641947
130.83692580145413
45.453192649052866
20.875976521534753
49.870889018943885
93.47580664196724
115.30077198532406
101.95777656601226
62.66266000123777
17.4647429606633
-16.748783983429348
-34.512926455953966
-40.08597338923085
-40.327348994898074
-39.54282422770073
-38.955030057555504
-38.48649484587131
-37.87919524086904
-36.85625465336687
-35.30634970673805
-33.611553766171824
-32.69527049295631
-33.408061910218294
-35.46980161736756
-37.23446666384768
-37.15540852816712
-35.353354377929776
-33.15846377599392
-31.48806690119653
-30.218049054006343
-28.96436180172443
-28.128278303244365
-28.616380189692777
-30.199521390970673
-31.012885757055514
-29.511832589886524
-26.204985543642515
-22.80489241543615
-20.343472584066863
-18.59430096650241
-16.824603558855546
-14.523181809628081
-11.564298799173152
-8.12889849807395
-4.427551444633434
-0.5904036094960322
2.901769359305798
5.269512103139726
6.524942373156808
8.092162465153057
11.687420672543501
17.440184070012116
23.620688618131428
28.53768243488601
32.051489934427245
34.87783439520485
37.31533990106563
39.29956580303926
40.96802799649275
42.44969278698324
43.49324521431353
43.69041394402115
42.75795198151674
40.49231563167944
36.83560046352418
32.05512326859981
26.554428185490277
20.64156066132594
14.776277868730947
9.626549393925975
5.355240405837116
1.3349735304573482
-2.8147973247344167
-6.439272846169101
-8.669356605444392
-9.717229859848485
-10.887166082315664
-13.169681793304182
-16.109374036828484
-18.26549831622064
-18.652846791990807
-17.746562480998577
-17.112101107996164
-17.906136748116566
-19.683054102350265
-20.881373036823426
-20.641133366292728
-19.765303677934543
-19.595507466130385
-20.37490265900066
-21.16214472204962
-21.10425552780251
-20.31354200634839
-19.589449592377445
-19.667694785560023
-20.728543999869878
-22.342629144256964
-23.677228120867845
-23.85131953880468
-22.389503911934924
-19.5409555124455
-16.285420471890507
-13.909607682923756
-13.201459836142488
-13.858955126687295
-14.717684743770274
-14.625570472320511
-13.33238247363439
-11.725545164133566
-10.962428446296654
-11.195610308311824
-11.435873495985371
-10.783218229045731
-9.363458633311373
-7.845342797472431
-6.583132229836421
-5.653119560266439
-5.263379538192019
-5.571070490143801
-6.27853299488552
-6.694598255801528
-6.104459303623779
-4.250106458236924
-1.723814965967319
0.42685427391226816
1.694497044134477
2.351720399832068
2.718419140171979
2.661719966021995
1.9534373526909152
0.9121000148608953
0.3895782364403554
0.8662895847607839
1.7676487513615513
2.1212202528726043
1.709930983075683
1.198622706029891
1.247776429005726
1.7786528093426661
2.4248272859309012
3.5473054752016733
5.846241316321499
8.81644810598859
10.887479797457118
11.700743222600742
13.200860083181112
17.642265408156128
24.846788606088495
32.018741314557744
36.18466688328418
36.29489026995795
33.285116293857776
28.80252650222773
23.874558075346776
18.876787267190732
14.452442121248929
11.4098657075662
9.635292019167977
7.988899482516049
5.701294013509558
3.3489017674158212
1.9568125130991367
1.55142837036438
0.987221417659742
-0.733709354013716
-2.8385448601736787
-3.1339722445487
-0.8632959685162306
1.4452250772010093
-0.20640081586384484
-8.497659674910473
-24.64411045783079
-49.96340128540036
-84.6964051481252
-122.42641254622161
-146.06247747143667
-132.55525187744192
-65.01522421949011
54.1822715702847
194.54727984935005
302.1761099035664
328.63148359862754
269.99324864053136
175.023396049015
106.08814473580429
90.7530876962018
110.44558677475348
127.86708149682063
118.73578094774955
82.91446514456747
36.5668750953533
-2.7293110711454407
-26.926316883813776
-38.17124542203911
-42.22325995267071
-42.844217074256406
-41.190220479712536
-38.18892335305595
-35.866763534553144
-35.92463494343982
-37.92014159058756
-39.83591094209026
-40.31459154944426
-39.81980216919792
-39.6135742761155
-40.001860850726494
-39.90835138467251
-38.38125720730618
-36.24846275266804
-35.342089536378374
-36.052525078436176
-36.83175291328987
-36.286103003935224
-34.72504554960423
-33.208767320811646
-31.82453386754412
-29.819204868721528
-27.017055164987287
-24.112869555477044
-21.774153899824128
-20.04673131189913
-18.494268554111372
-16.72641017948395
-14.832066620414778
-13.150125832297462
-11.50857114196751
-9.042829377648644
-5.235313729725472
-0.901224752916418
2.5867432442087823
4.989790948203552
7.387864494430733
10.714466226097183
14.699383127521003
18.27934480116866
20.81794508128746
22.956395902988415
26.104317265866978
30.783533759345392
35.808021939942094
39.52706508542562
41.24712530653386
41.03479120161489
39.122702027543546
36.09026277154629
32.904241829692324
30.138046566886814
27.216789532309473
22.80584979676503
16.27683730000552
8.694954083155046
2.022792827188322
-2.616908856879066
-5.821141522290672
-9.097092752505535
-13.166575323660513
-17.345571672860732
-20.51235842240972
-22.1427282863695
-22.494273177356288
-22.260361884020504
-22.062285358367962
-22.13883532059525
-22.555674593229842
-23.44700261997593
-24.785654242913076
-26.17839025631449
-27.012242201374292
-26.83397905208089
-25.886484278767764
-25.08006242486044
-25.0399854424588
-25.44151070914736
-25.45380327208309
-24.564691565239883
-23.05836418254628
-21.898163518729483
-22.013363286342443
-23.596128258390472
-25.924887040220234
-27.658504799075455
-27.634123922857196
-25.854260920073386
-23.50539067788061
-21.776857798647605
-21.009876011410803
-20.99242529217192
-21.46847979026136
-22.26754861390677
-23.231115451987122
-24.00949210214101
-24.04638808164243
-22.886663586717432
-20.39866046707692
-16.797226992086287
-12.62472546398601
-8.706276161281586
-5.873292791403946
-4.440390718780368
-4.094959963842388
-4.398989043603765
-5.1044265786413305
-6.019376714649113
-6.887712509796449
-7.3007023172350625
-6.799614984115328
-5.532844171181916
-4.493230339888372
-4.494226043506343
-5.162777261427382
-5.407438550337789
-4.76881745669506
-3.8568218570784185
-3.431997105455428
-3.445952402488364
-3.281118244240471
-2.8621172075282333
-2.8976341499393476
-3.7682651135649756
-4.815072632105757
-5.028857469799064
-4.050596373502562
-2.3899156216618818
-0.981589123985477
-0.49631620271296173
-0.8607688863793141
-1.5750865583366571
-2.342030689108431
-2.903821740256475
-2.5259429030631617
-0.6066573681996418
2.0682050781621233
3.7324125989513828
3.5381536933316076
2.302054605322806
1.430423843376704
1.4864384966737976
1.9371221440939879
2.4130116678571536
3.4331098167799494
5.202687007863156
6.722651204135802
7.1848880604081335
7.6898005517254955
10.437151134619153
16.05086786800311
22.309898237722503
25.84581099254738
25.153560275293334
21.97415239388957
19.338542334453102
18.268823585428603
17.35277608987124
15.288065496231093
12.27606766483172
8.925867618031674
5.1722988771550895
0.8706222858639721
-3.160723405790786
-5.50837423749608
-5.537914321015454
-4.101891250330137
-2.886014003993644
-2.7806950853527277
-2.8841735373607795
-1.8431165508000567
-0.20148827169063152
-0.5827650172367893
-5.720885592458974
-17.42753864116698
-37.58476262467337
-67.89310295294554
-105.08664109146135
-135.43104645271188
-136.9058893850995
-90.27989479998232
7.997646858874331
136.58646608951318
249.2147537386239
295.1724128771169
257.3308630735316
171.90971282869174
100.76965439630851
80.89865088678916
101.82326413381149
126.18487989178116
124.49371834917717
92.47022677382877
45.74092754407357
4.206662721650482
-21.087676972845596
-31.384544126790882
-34.44077957619988
-36.573689615765694
-39.319880573309305
-41.520980433002386
-42.55100011150419
-42.811403414429634
-42.19335595382502
-39.81006549699461
-35.75602929686285
-31.999382554488825
-30.503483600045204
-31.0564087219116
-31.757606257680568
-31.26677613182497
-30.119289599501776
-29.903169514631866
-31.245116142786067
-32.857374444669446
-32.96564718062629
-31.398013245269322
-29.504965871438767
-28.140682720123007
-26.655545992616506
-24.29592704877033
-21.795823775594403
-20.62733624799953
-21.039868492577217
-21.598819394672276
-20.6141520642851
-17.695412375395563
-13.75077180778028
-9.748544966178125
-5.972930824872804
-2.3538092597158258
0.9382484954214344
3.4838895569660093
5.33443319590209
7.40358358199045
10.644672944698307
14.91057896642097
18.951698552014093
21.637258976202812
23.08012850112982
24.373739509090576
26.296937345077435
28.789417759903362
31.63487496100702
34.799245626752075
37.86399265911215
39.642518843395194
38.82259644626049
35.21697781699697
30.18166563068422
25.468823146979897
21.694773041718122
18.127155268015883
13.947752723097095
9.283035415198686
4.768865262853146
0.6837943150697101
-3.189534286575722
-7.3326214091052435
-12.217979914022102
-17.814671323162116
-23.161962411814766
-26.777705847580982
-27.92936517526966
-27.31738424561692
-26.238812982815226
-25.44282461226027
-24.989548413231397
-24.78906087234843
-24.90205859603693
-25.40098925422153
-26.188371953490034
-26.93014145902722
-27.264876377842544
-27.250121429628585
-27.22926037183071
-27.241692549544894
-27.037581442204605
-26.566647546795046
-26.119107997398654
-25.993005793070537
-26.173158470893338
-26.269588846567366
-25.7240231156291
-24.291022624884956
-22.288823918396965
-20.326706809452933
-18.888022523616304
-18.039722717732328
-17.516070002327364
-17.1761699282252
-17.156926347678347
-17.396050378342448
-17.302984286300685
-16.289543737640425
-14.492749473607361
-12.64442635396479
-11.428058363738927
-11.207112742336495
-11.920255868160469
-12.873920502838338
-12.968186276203125
-11.43161241082848
-8.44143282027561
-5.146284966228413
-3.034224477740805
-2.919738995708581
-4.1966787097110725
-5.28642463498398
-5.086271436297475
-3.8214380569253508
-2.5204744211130334
-1.8879967369252646
-1.777031022351367
-1.713072286565802
-1.5536531640020994
-1.4176683007944695
-1.3163804940468808
-1.1996243162366949
-1.2305688569496938
-1.5305061694851405
-1.7068953012664836
-1.2310912332837187
-0.2427407576639482
0.44715332757750414
0.151450147646496
-1.0100841465171864
-2.1818487628040177
-2.5030056599159844
-1.7819945053063222
-0.4440525322957902
1.0483023946661731
2.4763207618314595
3.580618106454696
3.8393813623184743
2.810905152618412
0.7205283339773957
-1.2913805562623553
-1.734854897449514
0.02687780315742505
3.1822420848092534
6.200156871425894
8.095723613125475
8.915197465571358
9.035060519462228
8.671215834710592
8.624877784204806
10.68534662749018
16.125481570862153
23.820638648646355
30.567062022696746
33.580444674303536
32.56424070177993
29.119373916121525
24.583317745801857
19.422580782118356
14.4232980169628
10.94515526296611
9.573100032479394
9.375089230793362
8.847184555121881
7.343433324088727
5.6062841688756135
4.86259219858007
5.2226946524972355
5.379457785362715
4.3639037803481315
2.9665497481264964
2.5830779389977367
3.0920760773072886
2.43963956662758
-2.0729450236213323
-12.564452096716128
-30.854736664936677
-58.81444423679642
-94.96956541247141
-128.80053228076127
-140.529679449014
-109.5408863696027
-26.76038918803117
94.1837745110205
213.09634297356249
277.93633259406425
260.19138654252356
182.57461270800633
103.9955816484385
71.37154624095609
86.55038527045085
116.41119381146811
126.90365451088903
106.09623478626011
64.09101599558642
19.983435919669233
-11.772075593056135
-27.930361840896108
-33.70189080136344
-35.52016400899016
-36.35831372072365
-36.23772673707317
-35.23305848451461
-34.68030487439919
-35.59939894191229
-37.21736899847701
-37.88651092725891
-37.02440861382163
-35.48680958886337
-34.20457008787155
-33.00459944349058
-31.18239200477249
-29.041484471918988
-27.931060324619093
-28.47411915992134
-29.53490774467152
-29.48579905662759
-28.141083994710918
-26.743666926137514
-26.1554508871747
-25.85723884928121
-24.873505163146675
-23.044832027715376
-21.03642409083718
-19.38570667868747
-17.842381166497134
-15.716225499662881
-12.770745587900795
-9.431614670559938
-6.220623069060315
-3.495102534992779
-1.5448877761486932
-0.40512632200573806
0.4544381422466095
2.045639718469866
5.3234897375007195
10.495811562318238
16.575095925991572
21.85174224889052
25.265404630406124
27.174705330480727
28.723943354411446
30.830227177417644
33.713079540809716
36.94216417866066
39.91813594565505
42.339603175906305
43.84414935363061
43.41734064620967
40.04531977398434
34.19319539526998
27.89290385132228
22.798809902073884
18.61227006980239
13.968241748354544
8.390244588940808
2.6311692971297385
-2.5486785702776187
-7.0741725665517174
-11.163795360975477
-14.83132820144098
-17.86903406625015
-20.244404123031643
-22.264764582628423
-24.18176998033279
-25.90189906596806
-27.201096791795187
-28.04904519823757
-28.68514585706575
-29.407876717770506
-30.167952583689654
-30.384369903753168
-29.528320430139136
-27.970035568313747
-26.799763779162618
-26.706411998343466
-27.409850091965765
-28.086587658164646
-27.97547534621137
-26.86712381169573
-25.37433803288991
-24.505405343576477
-24.764016993905244
-25.729530944442484
-26.47331564101446
-26.26646599605119
-25.02138225934311
-23.240417222928258
-21.620040023344465
-20.706611421457456
-20.601914987182205
-20.888126878477753
-21.1350994675683
-21.275828010014557
-21.21691459618644
-20.46071914616258
-18.554973497042333
-15.888728007562985
-13.614105181826801
-12.652980536595871
-12.961614191767469
-13.562775130777874
-13.223870952266804
-11.495619578387583
-9.197412026188827
-7.64758214080347
-7.494870243014651
-8.51663672688901
-10.084986475476914
-11.328613551610651
-11.322558569631047
-9.715900968453852
-7.086743702456605
-4.524056427299275
-2.98560773297141
-2.9102703108484507
-4.043469623038839
-5.589467017583304
-6.696768660306595
-6.925143251268577
-6.298989447824562
-4.923269799960325
-2.732632965576459
0.152538933100845
2.830674884296961
3.8341887380237543
2.3787049720541957
-0.6993552494996687
-3.368927415243764
-3.8295605193452227
-1.9279057652215825
0.7027859614451617
2.2901904771811337
2.594249584141463
2.5413007903232425
2.6860761649308538
2.7731499712427157
2.634778456844775
2.7147367527198503
3.3185506573346424
3.967293259038386
4.111790250893065
4.022335230456585
4.363242671866208
5.097576359655422
5.4751725883624225
5.420017645766474
6.405801285850332
10.195981388550392
16.67506526339775
23.415270376010902
27.53656716448649
27.93076039465921
25.73382155854189
22.60811140464064
19.01541821799146
14.780919370278246
10.540378009281675
7.281965068961514
4.866182483092883
2.315891444839865
-0.5161537510017087
-2.5019822932743563
-2.6665255383509168
-1.6413397231297029
-1.2439026936764652
-2.5498415701855404
-4.639801705672989
-5.424604267332513
-3.9601776514342606
-2.1391334160259463
-3.7868494467785254
-12.096300235267107
-28.704017540257023
-54.70350354170138
-89.10978720426398
-123.62840669294664
-140.52565436629828
-118.6035530467459
-44.990372530582526
71.70193873003998
194.34577266791717
268.93701329149036
258.5593662838072
175.66289206503475
77.49004219806164
23.212199658256274
31.527069944320843
75.38016297692667
112.01488744196887
115.3815880098319
86.19369847878572
42.339690027463135
3.3460440730960186
-20.85165186925756
-31.568223740682797
-35.155877221880374
-36.32990608754653
-36.46357452856892
-35.79394628360192
-35.102798340994845
-34.87178295114517
-34.27024445897709
-32.2470129419956
-29.326904152674924
-27.48224329327291
-27.908585713946344
-29.478028544689185
-29.947779032847443
-28.413572757624312
-26.172735324014006
-25.06336156847841
-25.3229894280864
-25.722296602848573
-25.496803343266038
-25.223211001909146
-25.670342267607552
-26.457119214687847
-26.350026734670827
-24.647269216080574
-21.8150833347838
-18.864119532209674
-16.325844915171015
-13.854271955229798
-11.000275943275659
-8.181933973739673
-6.280651643882768
-5.367173145326774
-4.44615858295664
-2.4250598674380597
1.2004931869671667
6.394992773715992
12.51045530017054
18.197949185477196
22.097757906168464
23.979295474414442
25.05572256235147
26.91020054861033
30.14732305916039
34.09102980041737
37.583809671081866
40.128331213236066
42.24013749111673
44.56528527986353
46.830090286075105
47.8189730904003
46.41454464879121
42.625976502833076
37.469326733385714
31.848959150850643
25.83254952459177
19.271347646872037
12.75466587332785
7.296851534657433
3.1683620714843173
-0.37854035817693277
-4.111177609057496
-7.925336292946801
-11.090943563693259
-13.20892760843208
-14.680698184674387
-16.05786467391838
-17.271831607921563
-17.917890999970556
-18.01313092582282
-18.106756793340274
-18.805868621401697
-20.235209002062014
-21.710491148526295
-22.238256462778928
-21.672551581634327
-20.88293563793489
-20.618800445160726
-20.82690634712943
-21.19596007612755
-21.784909610067636
-22.78029372310407
-24.029488726266838
-25.16317143107177
-25.859108689483445
-25.78114883785602
-24.59062506912953
-22.36580091258721
-19.87971200267154
-18.131782249036362
-17.62025242195004
-18.0348064063548
-18.496246695053294
-18.27426117229123
-17.41973201630453
-16.57960667578778
-16.16577005666924
-15.811230786106643
-14.76824882049326
-12.877125349829619
-10.923211079262149
-9.824895621899774
-9.571213635767167
-9.230512188153261
-8.17025938602389
-6.950416835089185
-6.538154483521306
-6.97910620827639
-7.464516579946406
-7.488895291550101
-7.405512057158059
-7.719412867728001
-8.107467041100342
-7.6252342527011985
-5.991347842646792
-4.199942552378596
-3.5340514047796985
-4.116705772711204
-4.728149305571473
-4.1731795901482975
-2.5776236949536586
-1.075551930638558
-0.46730712445898226
-0.5420421698257092
-0.6030124430737309
-0.2695175526273401
0.45968305073190063
1.7108320402574677
3.7222932788974648
6.1111865033730695
7.571748351518519
6.848510229564559
4.104401760886752
0.8163073359803876
-1.7447428334913306
-3.2946546573528304
-3.92241512011193
-3.4790736923764136
-1.8821590401347748
0.2812758179122443
2.0078920629702273
2.846204473927571
3.19701424705993
3.549250925511827
3.834137833298322
3.8955715061047167
4.4524246093788875
7.004946527935729
12.416606048166301
19.705386591670525
26.45317876586276
30.53564013523795
31.448699707815777
29.947315677028826
26.707035654484663
21.847289737138873
15.813513241573347
10.01822806951983
5.914778911170009
3.4486072242786836
1.0819810162841965
-2.082702751118556
-4.755219494766282
-4.908049735302707
-2.5334604675118912
-0.12578790958505348
-0.09382751463350222
-2.1348691983816743
-3.783875462094673
-3.537020249225612
-2.889748458464012
-5.175257632795839
-13.285295167455253
-29.297550136458756
-55.210203640593086
-90.76181648260493
-127.79393293241694
-147.9499059152438
-129.27712747302874
-58.3605119577373
57.99045882664853
186.19194853619263
274.29993707125857
283.0513880886227
219.88293235095625
137.26859115327403
89.76707756180191
92.20508621470123
118.28766385613046
131.99535589656045
115.56234198355972
74.65867423069383
27.651372010601033
-8.551615971207454
-27.668838202361293
-33.89536096354116
-34.83146421136929
-35.02205390444404
-35.117309288060795
-34.88549352623244
-35.21653682456777
-37.05146195140698
-39.503785199143664
-40.3567702571854
-38.701382570350546
-36.169781108147376
-34.95924268910867
-35.28923285073907
-35.55676254299293
-34.725222797392306
-33.57747523021516
-33.216678625717364
-33.355470324474624
-32.88818236695208
-31.43388381632916
-29.72448756946915
-28.666787853136398
-28.157847142502668
-27.111811904288636
-24.92540884436352
-22.44201457203461
-20.876207709037928
-20.192128859468088
-19.220653522564746
-17.171819523120952
-14.491354364909823
-12.06825524429132
-9.96715605024973
-7.423030095612997
-3.9987543856087173
-0.24489070011115577
3.144970381985618
6.42943321743655
10.35944790147976
14.914258181228945
19.217997863707197
22.670388371036246
25.664464061756565
28.98125403853299
32.658478450364754
35.73211998502095
37.27864492234936
37.5647000534069
37.90360239966837
39.27413160218663
41.03069447570415
41.18687634067075
38.15303034479805
32.13623120400151
24.831691999638466
17.799027161653974
11.491097510580959
5.8929067320491475
1.2359604477550836
-2.340544883969182
-5.336135341854528
-8.57466623891316
-12.255184992818933
-15.713589032970459
-18.292467358184552
-20.030363386342223
-21.327667610998304
-22.322723218416847
-22.892438103687475
-23.103315322175934
-23.286788378305726
-23.637411734554185
-24.21326681397267
-25.273400382405256
-26.9251616846243
-28.56973529438754
-29.26716259310043
-28.498273310472023
-26.410781379232308
-23.77497347607428
-21.815758683165942
-21.521667311861044
-22.931677386306646
-25.266547095434973
-27.5591753285056
-29.066957362528953
-29.429545189166486
-28.696940701317054
-27.13538064228672
-25.048198373855186
-22.92302514634111
-21.446204310619013
-21.004126053867534
-21.17373342433806
-20.92253321553076
-19.632072412380424
-17.811205443971446
-16.383148351799843
-15.562677945386861
-14.9626458122992
-14.435609011084608
-14.175782196983977
-14.205045475747353
-14.20162238723998
-13.67258914493634
-12.269871426470829
-10.16161400548304
-7.930110686722529
-6.077784690169273
-4.854814854119937
-4.4009211473774865
-4.701171267324237
-5.429528607211692
-6.039037119682921
-6.000587785493836
-5.01786333947811
-3.272361507395067
-1.4794057046157587
-0.41325275687561536
-0.3158532439493329
-0.861462728199399
-1.4882534256797249
-1.6796345523146312
-1.0967878871125285
0.35496570937791583
2.1801957330281097
3.2356714030493396
2.7810226430511085
1.3668200243702577
0.12559858815624625
-0.5789466975622419
-1.3050353719648395
-2.4279324303360554
-3.373269266833767
-3.0173686236216213
-0.9061911584647947
1.8550247306551464
3.471981341323896
3.3894247495867553
2.7001449365311703
2.554901446376827
3.0078318237468964
3.54592213706007
3.864027324887833
3.91843620302683
3.7660158146397364
3.541005293009176
3.512737525216302
4.130814226190953
5.761634243042092
7.993921324416377
9.578063735347177
9.942798277835436
10.348787381112887
12.601068041790754
17.124294042282862
22.712236254995354
27.555704516503805
30.42959298759836
31.222561973439333
30.37617357518493
28.071827778321477
24.392829297652707
20.124710974444877
16.60168029524032
14.192030618297789
11.50907988117422
7.132695171195419
1.8553706760113433
-1.6832542855791193
-1.720837884322938
0.704595641941626
2.954047468882098
3.6113681876838157
3.3965301224885125
3.3073906198606764
2.6598433798144505
-0.5541585368721597
-8.047517354319456
-21.0873237587985
-41.81685118176668
-72.41559916002005
-109.66141865031004
-139.5265310960965
-139.84683532963695
-91.71778702084748
7.218237601953625
133.45914780732483
239.45349793290177
277.1333087028694
235.3976500884897
154.40585801821285
93.62304423138988
83.4373810896937
108.39284672819143
131.1342958770439
125.63133341783136
90.95543184431178
44.031667403499384
4.023009601787
-19.891910109631926
-30.31946284005165
-34.53928016634089
-37.09385159158724
-38.283718420765354
-37.389578213600586
-35.527204295964744
-34.86350380570075
-35.9844155929488
-37.31097551867733
-37.108960136139736
-35.376831743249724
-33.55002690584494
-32.6741139526219
-32.40913409528086
-31.93989022601908
-31.239523458794114
-30.93741032442654
-31.211212907395364
-31.351040230185212
-30.57284129613052
-28.96760003887851
-27.32924551528713
-26.088888388561553
-24.809605011872947
-23.001557036402186
-21.081695449286464
-19.981229700169013
-19.853766551122135
-19.540627811871296
-17.51909375493364
-13.539682813679601
-9.157629328406792
-6.177619343370475
-4.7756108903141214
-3.6235548359557526
-1.4596731344898446
1.9538586143698269
6.178696351367176
10.809750738450662
15.475914863475337
19.561692479826842
22.61136219330183
25.026748119406086
27.842548156920042
31.465994736809172
35.053983759674686
37.54873223267252
38.88760130379875
39.73630998594352
40.3677419706258
40.34551750755013
39.15182250612356
36.7331691076374
33.433401656171064
29.435203303074513
24.470507115859604
18.228380465715095
10.974807222464127
3.9301425816941333
-1.296147316716751
-4.205029427329503
-6.057604786876769
-8.70083965477378
-12.799695395467682
-17.26197603250829
-20.409783191882433
-21.571694900774332
-21.40961586465002
-21.052904156953772
-21.354346654510564
-22.62785470357248
-24.51139131856136
-26.095442804332002
-26.48160310294351
-25.572410380323547
-24.41072160864686
-24.394939776709762
-25.900527721360824
-27.839517603056166
-28.834707658339873
-28.630141199050648
-28.043771005864695
-27.719093072079488
-27.35462900602665
-26.297594903486765
-24.494611113456045
-22.579182285021155
-21.33214588490641
-21.22663932705118
-22.175857372048306
-23.429213417612505
-23.859620633925463
-22.765922607638764
-20.60823870786664
-18.74345021280486
-18.141578480748507
-18.476473993250824
-18.66024395501373
-18.036536532903053
-16.85391589901216
-15.735453635064282
-14.897748837985487
-14.011196758240926
-12.7864640767826
-11.383882769995672
-10.104639641733474
-9.06251144759148
-8.309425056852765
-7.881676338398688
-7.602060220465169
-7.050828315577031
-5.840001595003663
-4.0208674403502815
-2.282070817223038
-1.5696919786297512
-2.239229722721509
-3.5885831013319285
-4.433949505228158
-4.172253430648587
-3.167493431741443
-2.1081392559839185
-1.3136186834550323
-0.8288426208800355
-0.6257966695558403
-0.4017387287482448
0.27592460085619175
1.3633691327897792
2.2211441427934897
2.285144514209942
1.6567588170057395
0.8637623982066905
0.29554713342196626
0.14379544239319686
0.5196032962254638
1.18714787187196
1.5417200285666945
1.2847634462504784
0.8783747076495154
1.1358302221564323
2.5471957781282963
4.89850308488971
7.268035049224215
8.433257011400924
7.500331154706088
4.520566437472915
0.7921786548696379
-1.8579963383721365
-2.5145735867379773
-1.5210940750514927
0.4747562161564154
2.9802609674932095
5.285373906483635
6.444034046471915
6.14868915854925
5.653052078130752
7.1304444700860525
11.670847635159305
18.21509440627023
24.35316345303166
27.88250021141107
28.114413491671467
26.127848795315153
23.362890519197276
20.033690745394505
15.72164451086391
11.174122851590072
8.113516506402107
7.147737050473859
7.064625785686218
6.377650162457571
4.689403498343316
2.423798095052428
-0.11145168142059991
-2.83723811438592
-5.013017879650279
-5.013970942682068
-2.0598558252823818
1.8858857107919182
2.9263091746583516
-1.7840596572934535
-12.614268787335321
-29.52800472767646
-54.41795428172953
-88.20994259878012
-123.40043983858966
-141.11172346451758
-118.75371936909583
-43.940046983490575
72.89592773377181
193.85288986016477
266.9056840852833
259.9294048460034
189.87571713307352
112.30210218215157
76.05307743675704
87.72545199529077
117.05496019050325
129.0469889157592
108.99305374905916
65.55916646552566
18.75631247092992
-15.336995588154899
-32.83681797548221
-39.269247312383534
-41.422513601982345
-42.27116927404006
-41.703289132512374
-39.741906881276684
-37.822259955531344
-37.27060007420627
-37.74481368197523
-37.86857479334335
-37.17193258381833
-36.685059489179544
-37.31217472083201
-38.26535257626079
-37.854017087736935
-35.76624664714466
-33.70220107017458
-33.166827126160086
-33.51050533351766
-33.079613464720815
-31.50362192455048
-29.948228818950707
-29.48278110632355
-29.698932204135986
-29.155389988692804
-27.127142389162334
-24.360295302198303
-21.948914851903716
-20.082189726074635
-18.20276363810359
-16.04410653303218
-14.07070310782294
-12.744806853117122
-11.509663074601479
-8.904877865005869
-4.171115545340467
1.4734025239746589
5.803558741774729
7.822396397366436
8.66467474008401
10.269650633704376
13.561712709389438
18.11217023931397
22.98458847718233
27.372857688548184
30.70670521448025
32.70895737355964
33.64969310090487
34.48172526218962
36.15618582800845
38.425948689905276
39.86060477464332
39.275157748310065
36.58403990208595
32.281232270086015
26.736793149961677
20.227445457788573
13.210242766134094
6.193449830634886
-0.428168623072899
-6.294632209290056
-10.96964532322404
-13.995206359356848
-15.322658338644006
-15.584207418536813
-15.655480291267288
-16.09631539486112
-16.978191298636993
-18.05548137810308
-19.152052327337685
-20.449417166076202
-22.219945773395356
-24.078776513841245
-24.93117508954431
-24.166836192392907
-22.626771280514255
-21.948823443287395
-22.901971553408565
-24.603754184733862
-25.664759869616763
-25.828766266695656
-25.883545747954454
-26.196457850488372
-26.26132133381438
-25.75580083941426
-25.200932760986422
-25.337329272112356
-26.23085338944223
-27.107784615982382
-27.09932592390706
-26.09592617957611
-24.621153305172946
-23.029858785833174
-21.312808547755573
-19.632249600482535
-18.583047374476806
-18.786774250752053
-20.238923355705058
-21.835736316167093
-21.74819176745557
-18.955806620225342
-14.51701794150226
-10.916280465605885
-9.850165195143415
-10.62624183254778
-11.144755774169145
-10.390310828598418
-9.095962750233726
-8.07688307132512
-7.165133891353518
-5.961781146320554
-4.7161392919078855
-4.157664732634514
-4.657860177666947
-5.635786884688736
-5.969483843275742
-5.148593372820967
-3.8020223495868617
-2.8171335279699794
-2.2658435741279845
-1.7121410480655084
-1.2239300656378636
-1.2762145436830554
-1.7314535598827332
-1.7221933160835303
-0.8803698002198674
-0.15320463450694133
-0.7480198970878253
-2.5262625798453895
-4.039033919994809
-3.9627795590233843
-2.135492799148385
0.545212195052529
2.7667812159777
3.5973016378465266
3.151030703618408
2.3303532652292125
1.9179039482339526
2.2854714576208255
3.6800631958274765
5.908031527489717
7.7978882877143025
8.13426660668639
7.196894730104731
6.364351611724713
6.385851801503984
6.951051333505493
7.879593007690961
10.004880865618256
14.403071679817856
20.852671179187613
27.433220393577162
31.75262250201977
32.653220317619706
30.81180784173976
27.5635911503138
23.56074328158361
19.11261462061674
15.024861165423355
12.005773152410868
9.486421331576295
6.004181664920715
1.2348656089780448
-2.918217538796278
-4.020988566185112
-1.8470327882146034
1.0557493255148291
1.819265922115571
0.08118470100517106
-2.0399232702235084
-2.621165538554522
-2.155358409414767
-3.3225735260938762
-9.108799876341338
-21.506576591083167
-42.00444537434626
-71.4219307496494
-105.77157517223624
-131.52515122289253
-128.02812205968638
-77.93811228742355
20.115066124235963
141.72939312366913
238.5854409119854
263.33083437323324
206.86662105345948
111.34117272054146
39.54804525350882
27.59788112783923
63.98529045683137
108.5372394999451
126.6055988803537
108.18564015922554
65.49361020105019
19.60249275360185
-13.663892535305358
-30.76001697078874
-36.98060081239621
-38.39465678480844
-37.630510738332305
-35.15029943079131
-31.830962604827235
-29.47488902494725
-29.379428604832924
-31.005507782449428
-32.48929619183642
-32.640848425255236
-31.93718469705933
-31.35106763484452
-31.175236134454032
-31.426642821360492
-32.323142425090936
-33.64859593310158
-34.2403980902478
-32.825690803219764
-29.506722419995477
-26.105970279897136
-24.589967769157525
-25.063648954621133
-25.74648517546967
-25.133021348589697
-23.49355618632289
-21.820979342994043
-20.226400436115426
-18.15800783782115
-15.539860423230886
-12.865195402151812
-10.425460923188162
-7.914630257976115
-4.766677478242244
-0.9425191067649998
2.7749032573525327
5.703487265646531
8.223349861570162
11.348041551574985
15.547520903541612
20.3771889761653
25.15828571851559
29.603200067990297
33.73107083644524
37.5347496418099
40.79706711869747
43.08449159600337
44.10946568606325
44.29369696910368
44.6020034175229
45.407963773656505
45.840217874640835
44.61152460122682
41.1887440492159
35.871617056017364
29.17851456776737
21.723258180677057
14.42296445225385
8.223841729004391
3.4865996119588774
-0.23801507215693074
-3.7061157595345593
-7.280195856572854
-10.753661538612612
-13.614558089529746
-15.427777726769458
-16.26345712848711
-16.74775935563491
-17.43964097528314
-18.3174619236971
-19.116118716057613
-19.789647491373632
-20.33895652395853
-20.693262069500744
-21.120230352140975
-22.25162970534285
-24.25269792775696
-26.23659846362881
-26.921081920259535
-25.893797868709363
-24.092075385202108
-22.871284958918157
-22.590544541183736
-22.502347120668137
-22.031534287159587
-21.493271678766753
-21.42832657093903
-21.77715224943006
-21.894830894708846
-21.255661649432092
-20.062559239214963
-19.01715164488586
-18.539397395211754
-18.46775789621916
-18.43971403243632
-18.190440348624136
-17.563314100148453
-16.573675395412078
-15.363176740705704
-14.142270565505036
-13.31514010824472
-13.10406339743799
-12.926189354338955
-11.895484530699074
-10.015664082072758
-8.258621236028002
-7.346511899133031
-6.800316512737223
-5.5074107481895425
-3.226368267914035
-1.0486558615198236
-0.17395072939124046
-0.6209412672214882
-1.296078901846963
-1.2810873120667112
-0.8435168893229797
-0.7789455281470148
-1.1628893873940118
-1.5105810369936785
-1.7716904332528645
-2.191388911115095
-2.334885706049576
-1.31418765338894
0.8152975449902737
2.6543462158729025
2.797341180222606
1.3856011208891792
0.10008302058808749
0.4191547756225707
2.104806848508731
3.705168181035089
4.268941783135412
4.157150585697062
4.223468038129283
4.666012106697045
4.964095179801978
4.667960957314806
3.886504779451793
2.9987431098832635
2.190664994110549
1.545653482816331
1.4702070023928773
2.483449152249869
4.266233308808218
5.439211245932191
4.947310433207352
3.4968142197367698
3.0586823914371903
4.733427088551685
7.319048724787056
8.538039904189832
7.649324553530244
6.016491876753453
5.166666535329447
5.35598936251476
6.311240874741109
8.445097852489885
12.528866532792017
18.434835485729437
24.65485299766402
29.055940442293245
30.252658293179447
28.448895204621312
24.94158672092867
20.937784349182525
17.085794699624564
13.85278728158186
11.550739528063149
9.809483757312695
7.769022641496922
5.175069946033751
2.8467159996960345
1.7801291081602286
1.9219819775462177
2.0064799245211895
0.8645891422530791
-1.0197042045061269
-1.768062902583177
-0.3944770610383799
1.4426167910570125
0.2947052015206266
-6.669386098882033
-20.57048600958435
-42.297411527841426
-73.26608171210013
-110.95339524503417
-142.42228670896722
-145.48857075450894
-99.9520325321059
-1.4164181353074774
128.9394102295954
244.69114607383116
295.263959675886
263.7214338320668
185.65481192403598
120.89866403055552
103.64161356220325
121.83048603208017
139.31874897877321
129.9062926400013
92.30985324723349
43.037624493082205
0.8217719244642661
-25.092654616621868
-36.783687068168454
-41.29168019201644
-43.68440221318584
-45.09340412754358
-45.03149952837468
-43.9546221791575
-43.17685863070091
-43.116363816006
-42.803327077689794
-41.41136958710383
-39.65293105829953
-38.926760067597634
-39.277778533229394
-39.151299279882345
-37.42976549759772
-35.108359083245304
-34.35815840563026
-35.87132472075128
-37.78159754260993
-37.807490993873785
-36.016372449489666
-34.51896503324542
-34.615196874315195
-35.41719428921229
-35.269375680462176
-33.410168957530445
-30.208218518744655
-26.539162268711443
-23.06175165730471
-19.955199742721593
-17.37187346499411
-15.711511041746054
-14.937144383982684
-14.036748057757832
-11.860429508949382
-8.393133135401063
-4.5984158045070735
-0.9495439935144053
3.1986827829468094
8.470184572989881
14.210220698518377
18.897032002416477
21.756071376949574
23.571235588785136
25.807093075351585
29.156988036694536
33.00578604220526
36.18096881644668
38.079420787677606
38.86860954267207
38.67173146859559
37.19141899971538
34.52729110537435
31.562607274743662
28.69085535975009
24.839987444333683
18.747900046261954
10.789230742609233
2.7124594605823122
-3.9627003095957254
-8.598626497913319
-11.25445314902041
-12.65354060600338
-13.908866328207385
-15.75014188548709
-18.069922664220094
-20.271281308894906
-21.911358953962946
-22.976777138999694
-23.699855045529276
-24.38017989910595
-25.362858033851968
-26.731624272065968
-27.840526383246857
-27.713012504308626
-26.35773277608647
-25.06808357846695
-24.865381047278923
-25.387500196916342
-25.79233901113835
-25.879340299123047
-25.85195171354248
-25.783765727083523
-25.8069584856109
-26.24999002093294
-27.124225279338656
-27.689018288175475
-26.95346850344183
-24.826759498911517
-22.44427309948835
-21.08924617207322
-21.13605861455479
-22.051981485495908
-22.909840368699122
-22.919080328476916
-21.859883874993425
-20.007935706853512
-17.6371371510712
-14.989560301770076
-12.764186502385176
-11.963580465672367
-12.781260325162505
-13.953142372779553
-13.77729722220479
-11.794997621108529
-9.167083081012189
-7.421938369871179
-7.027686721435211
-7.221094366680958
-7.07394102170111
-6.462209727426093
-5.843811903264998
-5.3960054612324955
-4.869889451692743
-4.170762733252944
-3.6002458747646076
-3.5086811684818517
-3.932746919182788
-4.576312196620895
-5.0716028866136424
-5.314350466747648
-5.479298444439488
-5.456626417010366
-4.5125313343360345
-2.1455128768394616
0.8508631126597934
2.9855753075891007
3.7138485715311838
3.7015337485245663
3.6173202865122756
3.4764306224818142
3.0158373577035316
2.229317439300699
1.5680577170476546
1.4637769189746277
1.6376965270446389
1.4622464546544138
1.019302511079555
1.0624077622966865
1.8985880981061043
2.9222681133428394
3.357944209949615
3.1057161990665705
2.711537989958013
2.7721067655326843
3.426247699358069
4.237807003447584
4.627836610100257
4.276993462662922
3.080884309111328
1.2930592049183345
-0.17321297354098308
-0.2382786625265907
1.2052714696803382
3.0411524119025852
4.095257106612528
4.226186136685847
4.178214130616981
4.644674116855075
5.495697910966249
5.851988386442433
4.984924722597265
3.2008402004135053
1.6830224511025067
1.338066793766144
2.072199065490121
3.28822054740031
4.669713363219017
6.185430725595018
7.508518307192769
7.932346092295515
7.279395447862888
6.875701128126906
8.983601901363084
14.48755850534472
21.308362944054984
26.000556832554178
26.945206259593043
25.188278684764285
22.43133460440106
19.333997254126558
15.819596524018223
12.16437932933621
9.210686323691432
7.392213293177982
6.0319781010274625
4.329257200310575
2.793613198306133
2.671777225656577
3.7882031491886776
4.103217922708195
2.2082852584077504
-0.483090172081972
-1.159038788969543
0.7372860369121238
2.105329122763557
-1.210914943835957
-11.33387001150362
-28.90155196679005
-55.267649864773034
-90.25030984215518
-125.69811773995059
-143.36766763171033
-121.94055439812844
-49.00145015442098
67.52712763076998
193.21485061708313
276.5212578799423
280.8295966427385
217.58784907589103
141.1051105854027
102.62418736728576
110.54484944699102
134.54626035897581
139.93272201937395
113.88403206388
66.89721920186545
19.14029263864549
-14.33485327125801
-30.763652215529284
-36.48814947660934
-38.605444781599886
-39.79305644232622
-39.56652529422932
-38.03460788373711
-36.86172308793161
-37.15242907531119
-38.01544745344069
-37.83921683755823
-36.34273320173098
-34.838900094196326
-34.661837612610356
-35.57756330765813
-35.96407635699975
-34.79673458133618
-33.02963866720279
-32.3352523380147
-32.78325737108676
-32.71026991889212
-30.952871857556765
-28.345582084676426
-26.64976023810002
-26.454254701465615
-26.566421052572345
-25.52235382177281
-23.307509990613536
-21.130226543611975
-19.738241042741578
-18.70212474453269
-17.408252033407862
-15.948665063990532
-14.641184234822317
-13.145944070119912
-10.672007191349145
-7.114758892618054
-3.410905255954453
-0.3942460643017301
2.33704269680307
5.886039702947958
10.545553649344019
15.48140209707369
19.953903227316445
24.153594827840724
28.522667496326882
32.7754766405236
36.14603009682496
38.41959509748842
40.16989662606453
41.87955063699506
43.1372857577429
42.9603354469431
40.87825568660309
37.40481847192606
33.29103584413078
28.60690826096349
22.938622284996693
16.33281664696249
9.648789633641977
3.8704542051536004
-0.8539343439652524
-5.146584302077039
-9.328461456911587
-12.968940380029462
-15.56904150649203
-17.254268505459024
-18.641822507688303
-20.115795484378285
-21.439933015607302
-22.171581327942302
-22.259409769225996
-22.151874252665504
-22.43547868955818
-23.36430321151547
-24.624871631628736
-25.499197441144492
-25.442056089687185
-24.707485390528745
-24.174107443172684
-24.384754908853886
-25.02497403177989
-25.427142927761793
-25.386396355769307
-25.242516095983564
-25.18328023455843
-25.046656452634785
-24.97066339339273
-25.43300368137675
-26.334740504001623
-26.733646282146523
-25.7756931808154
-23.546576516967203
-20.978049901525022
-19.096392156489593
-18.31785351797989
-18.287864426602777
-18.22568238256148
-17.491360545242745
-16.043491499990793
-14.477434416970993
-13.535611289301247
-13.44308942083529
-13.820245352661578
-14.197128418761304
-14.402722352658811
-14.52266222628284
-14.498006295874408
-13.820702101414598
-11.935197502131407
-8.96279399379475
-5.892565404391064
-4.02418677016905
-3.959876986645191
-5.020214920094133
-5.887634813636791
-5.71120307666778
-4.4395475822970365
-2.5981396747864682
-0.9940542096773419
-0.20657960070266568
-0.16611167517166914
-0.3819292673344492
-0.6048613735216879
-1.0334034464661874
-1.7986992580255976
-2.520974876525412
-2.5193719586441357
-1.4813411017052724
0.05261854271633637
1.0542712642289211
1.0064083484605466
0.3634264091875261
-0.08817385422335322
-0.05791957042785789
0.14689968955739963
0.1214694441725035
-0.10657691664830615
-0.1260470455681697
0.33817353015660867
1.2134933256324814
2.260831736356482
3.2093296440349226
3.6694014499140195
3.191320810712929
1.8413628554767025
0.5307436003204247
0.35028850965475233
1.46261074502297
2.730114903652612
2.8420301814549296
1.8287079382218723
0.9735732850253369
1.1900945000704013
1.9788927913344114
2.3565859437276284
2.2991920124130147
2.597366287475828
3.5984990042272846
4.597482670838902
4.6087181629492875
3.6627693559995684
2.857147183019821
2.94274962836812
3.5668472091383263
4.2488279944972644
5.387654549911848
7.8486293504469415
11.776991544756642
16.13816196762658
19.649238594294225
21.78309145635943
22.41070896797028
21.06592166400585
17.388686447900152
12.12396796619737
7.034523523673332
3.6497928453686477
2.1578728308520607
1.486161459781337
0.5297360276044835
-0.7582014999295872
-1.6348855464247904
-1.8606107974252315
-2.3914003907906065
-4.124171769471244
-5.921852112303632
-5.204611991765205
-1.3958706898339615
2.222302905927863
1.059053975329707
-7.2281855501218155
-22.73133513199251
-45.948560677365315
-77.53879494767068
-112.64878890487184
-136.05929067589406
-126.10007086266512
-66.58738961801646
39.703662004188786
162.42998070872957
250.1872684711655
260.65044897899475
196.64722257778465
109.0210086177573
56.35932426746968
60.136586813472846
96.64955141477405
125.51766091024922
121.78500277365319
86.83015306252372
39.33915653667574
-0.8858755704401977
-24.6356390929129
-34.10612132013388
-35.95033571742649
-35.14889289066812
-33.76727578364055
-32.62651052302404
-32.65220298588827
-34.454831827317705
-37.28836689700487
-39.386012104295624
-39.7085541093564
-38.95351978927985
-38.36730713390354
-38.041516050790136
-37.16196416928848
-35.659018441817594
-34.64811729021413
-34.94140511447915
-35.83702027957293
-35.97748281877664
-35.062236201979154
-33.991405409664836
-33.2036352269347
-31.653313324449538
-28.17148365528782
-23.532723683338602
-20.229585495044535
-19.85728846430565
-21.282594995271044
-21.877912696353757
-20.23892449156472
-17.155633355759292
-14.212021097871808
-12.13853468476189
-10.428187755909454
-8.107893037403395
-4.865325110994865
-1.2244830959480122
2.4569648618862883
6.467022548927974
11.067833008168988
16.03030093124628
20.908463929721076
25.287988971962456
28.73697177557707
31.011559566123445
32.644279186674396
34.917397362662314
38.69502653564757
43.528896770041314
47.93167186531419
49.93150563092458
47.919502612874545
41.988323401555185
34.2092225561171
26.985906856758888
21.271679069166623
16.67219754244707
12.688861856136151
9.079363054959096
5.2878397634609335
0.4556934772134189
-5.4943018204379825
-11.162205651557278
-14.749681089711471
-15.890006739638382
-15.989287915900793
-16.654895823990056
-18.169043006678663
-19.669784361253438
-20.42486914800839
-20.628406703652573
-20.978021003388616
-21.69215857728794
-22.231132830443016
-22.000286439974218
-21.189175286691032
-20.714863834506314
-21.22836273685703
-22.43892541746136
-23.496879237290777
-23.746883418060744
-23.181171858493535
-22.42420732555323
-22.14512882580835
-22.489442555724352
-23.18800537449342
-23.849277452940242
-24.059973419562713
-23.639785413339684
-22.841309627135285
-22.058081517519756
-21.363770807711383
-20.540607846863004
-19.522603109822217
-18.47184424166466
-17.479405182160264
-16.54068185652279
-15.774615298178219
-15.425022846135684
-15.485136777696635
-15.42044276582224
-14.655633541009436
-13.466027625616949
-12.921532348058706
-13.676698683094717
-15.289378264218662
-16.787697006430975
-17.25273538672257
-15.956945604299081
-12.870767646314516
-9.194488080028172
-6.524022548795888
-5.306582907004034
-4.774322673951192
-4.245095412082485
-3.798418117119736
-3.723857483685822
-3.84637340257326
-3.716627965260914
-3.3343604109968457
-3.2064106006285344
-3.534727562301684
-3.775330764546954
-3.3194357157979035
-2.5743844594742695
-2.882033369646325
-4.69433406420156
-6.346535269184031
-5.649063535918159
-2.414339364549197
1.2698000091187325
3.281150552821754
3.518392890094548
3.3541866189754
3.598590210237967
3.90065269463813
4.0348659353642775
4.853430134271839
7.336548215674918
10.963910103003123
13.707457147198895
13.680042846851611
10.619027533101466
5.9791979155827875
1.6084755621979765
-1.4505653154182814
-2.650698972468872
-1.5152961814205543
1.610832702491815
5.10352858439979
7.064162563294602
6.821677683421554
5.3510485937242525
4.303533111192412
4.9179206171705765
7.556451156400048
11.732426987090555
16.720409299351218
21.98572152912448
26.63341927240489
29.306733889633644
29.491606671104662
28.257549208062578
27.03655345863389
25.87733395362195
23.34238306635216
18.42495379261031
12.219162018073684
7.178649317783936
4.877122878697023
4.816401069053838
5.357527723917383
5.406186718305559
4.934681367858117
4.159351120493665
3.03117580902004
1.946642502944452
1.9409245376490667
3.32385482415959
4.734923861271652
4.053770046313959
-0.21608254921667414
-9.163532861178163
-24.936667892661063
-50.43810712727459
-85.07150454642118
-118.97122425434141
-132.25105975969473
-103.16568423274728
-21.786249455898506
97.4423552082638
212.5355691121089
271.40919542367465
248.43375077049473
169.3926089806294
93.38953663195893
65.31875048234079
85.2378713853419
119.12700244478508
132.32864725533926
112.61129084611207
70.42320136552354
25.609284971766954
-6.872252322720818
-23.81357458415266
-30.628898491086865
-33.54460677676012
-35.07815727145305
-35.22253602632625
-34.223048306724266
-33.160406253414656
-32.859757838647795
-33.143385567566995
-33.28522818003866
-33.056447301719274
-33.001175816143224
-33.51953120279796
-34.13849506335532
-34.08842811025709
-33.20016277031246
-31.9106015652526
-30.683027520026457
-29.65907093221975
-28.826239488387692
-28.363549674161277
-28.535373915715518
-28.98144867353792
-28.466758188939675
-26.103955407090588
-22.628790021710845
-19.71721409404278
-18.215110015180727
-17.530777358002943
-16.70511084164944
-15.596744220607683
-14.586624293415152
-13.486909037287138
-11.480311379758351
-8.041241405076036
-3.4989846205765334
1.2033798104167337
5.4202155302715544
9.630234234012292
14.77249305466214
20.597038643050123
25.523976891498585
28.505952941581224
30.296529854453464
32.34926452073093
35.024621103632214
37.553839312673745
39.405326488773845
40.98446962886466
42.85117301892754
44.45690370245347
44.25966217021103
41.35392840196962
36.32032401034873
30.397894409196198
24.411886840391738
18.569806158116368
13.079281041440352
8.437634255522088
4.664548409370133
0.7402102687253738
-4.363380761005691
-9.992616705834552
-14.03689309356205
-15.373564885750108
-15.29810473536387
-16.045950454069665
-18.586649517121266
-22.104227039286144
-24.946002281527825
-25.981797298778915
-25.531400649130305
-24.76180877320542
-24.23365360713449
-23.751306989233573
-23.2133710789187
-22.826947193997317
-22.8649457126548
-23.577432433638602
-25.098653701284622
-27.16995182143014
-28.878695428998764
-29.14771183907186
-27.883349124163942
-26.057812008075953
-24.46935229023058
-23.257162358172426
-22.54843467648239
-22.737739320711377
-24.203757384095972
-26.950504293137893
-30.10365027116784
-31.83346488011382
-30.484574858084102
-26.00212678914273
-20.091938974981268
-15.168618594179069
-13.151813354487995
-14.606383190927403
-18.42340960655664
-22.410568682482758
-24.547106983171886
-23.850505880458808
-20.449441110772383
-15.560945203050917
-11.289245922026685
-9.413666001685826
-10.029386485776433
-11.680265395486485
-12.744753811696581
-12.571392880755825
-11.440657476205024
-9.805941981812612
-8.014946992127467
-6.491306884216785
-5.357776278090339
-4.089610144385532
-2.45754687694395
-1.5064655865805112
-2.5690703394278698
-5.470830918439
-8.381198286772014
-9.30772410416936
-7.644969615751562
-4.412167562708772
-1.0304343016415498
1.7535200283407566
3.647776809097832
4.326116096148137
3.7987535038587765
2.7602183490231127
1.908771939257606
1.3107485855007213
0.8545992632534261
0.8509896654478051
1.6424790657116892
2.800066076333047
3.2634452312852256
2.3018096403316317
0.13562082487383753
-2.0625923804545243
-2.880407855164046
-1.923506796942605
-0.03822505700025114
1.9571304842029578
3.94248081677444
5.629122318893553
6.085022028773608
4.80691801396967
2.617302865357979
0.9598135905686302
0.6316454075785727
1.237057047667253
1.5280179485758958
0.6519824582292221
-0.6178080747009511
-0.5980503372729545
1.1850498613243932
3.3971888359738553
4.502978700671804
4.3440608918604715
4.008292506572726
4.505760989487891
5.788930779622984
7.121297265053739
8.14187587535657
8.908132043868665
9.084104140778784
8.064742813787538
5.972630796037528
4.021095348977959
3.6322589751140604
5.083883253149597
7.092736962100573
7.933827318240571
7.32734563487121
7.05115079710795
8.99398161654272
13.01060191778802
17.537940379216497
21.52589172143291
24.623349477617303
26.150961560163804
25.1540868818685
21.498093036947754
16.39839726943555
11.778045222228904
9.0464590336037
8.131767184032483
7.637348056517419
6.407456881925518
4.85131895057488
4.081180599468311
4.064523682449115
3.692900824653653
2.5778043036204847
1.5484755074458998
1.221396392123689
0.943120601240882
-0.988759323779168
-6.611965292943564
-18.08059766229397
-38.29992902688229
-69.48672075185783
-107.10550828810159
-135.09215626210653
-130.91017016468652
-78.39114939134294
20.478141161164924
139.25909369672132
231.57643975959073
255.54688224657752
207.9780552782488
132.41115741686207
84.21303812827708
85.87808629433432
116.54150890153622
138.70459975415463
129.48790067455673
91.06191355045794
41.62172033987514
0.19965378561419467
-24.104725455053064
-33.39253185964082
-34.792643363805226
-34.01502297805313
-33.36832518349651
-33.32714498001676
-34.15802983719239
-35.76830248988128
-37.18388309507835
-37.320116311555466
-36.104775382456964
-34.51879987832047
-33.64850787624167
-33.56531643322403
-33.32045177856088
-32.40399340184521
-31.636093973337537
-31.960978920872932
-32.76156543832017
-32.19933149908324
-29.480735720017044
-26.185305200662757
-24.68333078494967
-25.550527840473
-27.161435732171473
-27.570323617215664
-26.183516479884975
-23.63358872259218
-20.581200574290794
-17.038212894446687
-12.899700708647476
-8.835018035897393
-6.131610116796235
-5.5040094605489145
-6.371006869322363
-7.367161838574001
-7.3067871952751124
-5.620149495415002
-2.0811616372148913
3.428293108247711
10.473950977658573
17.628217176356237
23.14503310243278
26.480455582890013
28.847236536466532
31.755437014918837
35.27473018683122
38.28762176020609
40.118807888776416
41.16850174447076
42.02591135190812
42.670943744472126
42.646923481801224
41.51322364116693
39.04101260193367
35.191039517619956
29.90840560049109
23.219491888427513
15.816339711194953
8.925036074004941
3.1590879987832157
-1.8630102893852623
-6.556064928077325
-10.734038226278692
-14.114898681988306
-16.885946017950367
-19.508194100014602
-22.128977395253848
-24.235787608524014
-25.016048064539966
-24.319333039962867
-23.09137519188719
-22.52386311855128
-22.952868127207854
-23.820520206968784
-24.406988935734837
-24.419996609845285
-24.043869644706366
-23.430848917739894
-22.484375832066526
-21.453173628367946
-21.144835758878273
-22.072681123570455
-23.70028682043295
-24.881092011649876
-25.072581457299755
-24.974410684800205
-25.709658116694534
-27.34271320791254
-28.69981829696707
-28.74189068170345
-27.452865599898406
-25.377617318492863
-23.113639306048537
-21.343262234817548
-20.5766715914411
-20.657542464630286
-20.93949010936736
-20.84681037434571
-20.034604641294784
-18.457696369866532
-16.609283791035363
-15.323810378565762
-15.016317638971575
-15.195172471455363
-14.907535710092068
-13.595060681063725
-11.396374703731876
-8.982353881431898
-7.356226501082462
-7.264158492823499
-8.401862923574717
-9.52846233869977
-9.550809333554232
-8.443336034421108
-7.123209702882587
-6.423774858070499
-6.321762464576287
-6.163540380321768
-5.441460108502623
-4.30474739999287
-3.3350137535147004
-2.9372174732487046
-3.005309138665723
-3.1006951081124456
-2.950322823710529
-2.6327006875076533
-2.2279557180736083
-1.6095469643215523
-0.7629668558407181
-0.08332103556940007
-0.08283970093611992
-0.7556392284308706
-1.358426106265095
-1.093289648380389
-0.1493640462700364
0.34710509707659787
-0.2778502979547892
-1.4113648531443743
-2.0183607557130543
-1.8330040340413776
-1.3501791251861919
-0.8827033180082533
-0.038179351344208134
1.625218805034001
3.717374825608008
5.241862019173801
5.588160889595788
5.050576410521865
4.403097983008182
4.144407570618172
4.231644995972555
4.232817347857969
3.6577793200207562
2.4333898385140222
0.9503969816978269
-0.47466927772276746
-1.8019238891417335
-2.7482000218696365
-2.649812802925074
-1.3044538304467326
0.5522409926168131
2.0588770643226133
3.1081215596231697
4.019233891358271
4.625339301811859
4.307888255248056
3.2810349316004714
3.3904318101353104
6.581625231562699
12.477943663464652
18.54171613501754
22.563917016194907
24.039817047842323
23.371486247518504
20.7154997807423
16.18507841414684
10.896706658643456
6.8979582454252135
5.559556665577923
6.1607798732824754
6.460001387442893
4.855943724454412
1.8141053403253213
-0.8604836414901031
-2.0651497875079037
-2.4053096243712715
-2.8999005909946396
-3.3762201806868495
-2.9525217282591885
-1.8660090167618044
-2.140836455306446
-6.290210041220338
-15.936907697910915
-32.4318715586106
-57.83889609342057
-91.72738087911476
-124.66230018544582
-136.93427511804907
-107.18752789838373
-26.04516056014507
92.17085443625527
206.43734953809738
265.09413300895665
241.09910431998833
158.10341530875536
75.30348445491082
41.081575825779055
59.85725030985634
99.17510485617623
121.83454232935925
110.85271061039536
73.04069286716395
27.88356666221855
-7.2161769729255125
-26.176893627005775
-33.09777329549781
-34.762221301009006
-35.08779326508748
-35.033148095638815
-35.12158131974762
-36.381448912056484
-39.0429786345877
-41.597529284815806
-42.100320663497214
-40.43128069123439
-38.4552286458862
-37.700781371134674
-37.81682727991366
-37.61138019867138
-36.69636340918462
-35.58447741495152
-34.674238782654086
-33.693314661973474
-32.17611682225331
-30.335939220679077
-29.1153869638358
-29.07835491992341
-29.515828254349437
-29.080369788939173
-27.29307032214994
-25.010362015315277
-23.271345618525014
-22.10226435006968
-20.692338538959763
-18.54027744393951
-16.117407424555342
-14.152811394319778
-12.438651642883382
-9.923900832450983
-6.048161554509342
-1.324964836447457
3.494056947578866
8.173936401247248
12.724906578887634
16.918889938390187
20.52294321979473
23.766462668002788
27.197029049660184
31.09867517049313
35.0715551531938
38.2652698647693
40.22624419649228
41.35980751954081
42.36939294969666
43.37903927500555
43.76656018551841
42.816020398632155
40.29454128710341
36.40929471475296
31.621967166926783
26.52907586535151
21.521102403917016
16.53141728783191
11.227618779159899
5.465704893800925
-0.3512536916417846
-5.503849923594217
-9.439225482790597
-11.862636380777268
-12.94191716030634
-13.484918824064216
-14.253858921575508
-15.290892002379556
-16.298214039128926
-17.277291430882958
-18.463848585227584
-19.8279735402468
-20.889281594453877
-21.144922917767882
-20.592087314577707
-19.65545530598624
-18.815565681112425
-18.440271323087217
-18.631415355895456
-19.19349628876172
-19.920219099359258
-20.71888487685935
-21.432062688984075
-21.91952122551019
-22.415281185113027
-23.37180465323389
-24.637575928392504
-25.1503653936389
-23.97225839341245
-21.469178052688182
-19.024861949788022
-17.784804795700627
-17.936016703092363
-18.807242415798942
-19.331444386857225
-18.659112824259786
-16.737012742685476
-14.407944512396767
-12.80755247285034
-12.454008296802229
-12.736651822803795
-12.450496126115361
-11.00845036225557
-8.939857912131203
-7.251280295798685
-6.5280755480247015
-6.565816718116457
-6.714931081707556
-6.474024880542275
-5.699456454412398
-4.367195831961818
-2.371086351498135
0.16826766875504645
2.4001553006730605
3.033073211634883
1.5145162734280255
-1.2289409174458874
-3.507605606052471
-4.30328097861937
-3.8710883309961313
-3.0267280984980607
-1.9977881306769285
-0.16436168776838944
2.7892670557504537
5.864567026554477
7.547531075562287
7.241202850136245
5.443214503165744
2.910329274910519
0.18985879772447722
-1.8721474164757754
-1.8445739042874194
1.0968113328493136
5.641302179765001
8.61796792532274
7.538322445444338
3.314708738322825
0.16261036991048305
2.0891658602277374
8.979417759548197
16.357582113849826
19.301734597358173
16.30527754462787
9.423882195450396
1.8013755827914562
-4.134132241873395
-6.9509095460891475
-6.391396687214935
-3.7298207909691063
-1.05840265288289
0.42691879562306634
1.0668399332866305
1.6301946422486369
2.2306282314855768
2.3690044275314506
1.6585573870573371
0.453736712889709
-0.18402894133141656
0.7813002285258597
3.437998708147209
6.818702446609876
9.774106895501129
11.570849493384701
11.88423019190844
10.840232166495845
9.106448824350434
7.947386914231771
8.845831389557983
12.310660698249047
17.17290330338327
21.479758483499904
23.86422466335095
23.91981301474131
21.615907899254758
17.026141492961354
11.000736818392276
5.499646541680243
2.407402403928795
1.7999421305972272
1.7331075621295913
0.33474735268316475
-1.9693498153159712
-3.122464443756449
-2.196718894419503
-0.3286229485869151
1.0968758613583875
1.8772050227303037
2.362908920159511
2.3340510727502335
0.7602113574777357
-3.7577481143928426
-12.773723280696228
-28.621498399462297
-54.575180838956726
-91.28737986333128
-130.06576793777856
-150.99547184927235
-131.2228722491377
-58.230176342219444
58.99452067785589
185.11469979823488
268.6304223003047
273.27931185803203
209.90570774855445
131.634386744794
90.1884546054502
96.76731833826292
123.6050484666563
135.643731614225
117.02882854706414
74.97561967034274
28.155519024160313
-7.623561504235148
-27.432027288727785
-35.62583964740381
-38.74520811328695
-40.09717964051564
-39.57017380908009
-36.78757719413568
-33.272213822441934
-31.271927162706465
-31.314681016679824
-32.115216636595
-32.756193610164274
-33.753325720781284
-35.663953614894425
-37.66503680979631
-38.269163772484575
-37.13783817224513
-35.5961444202369
-35.12962718352787
-35.64436650070909
-35.71169499914063
-34.426931904243645
-32.279407527570704
-29.936047124428057
-26.884699467941136
-22.23343544625635
-16.890646691943168
-13.726086420222401
-14.625936636223623
-18.15583591411223
-21.19412185874707
-22.126208020276003
-21.306013453571232
-19.262474640724303
-15.92395731494139
-11.388540455334622
-6.393808317185111
-1.8465754175172986
1.7677547562267355
4.731234167722987
8.052131787959624
12.592122704507872
17.983881306768854
22.801192152304615
25.95962365062378
27.678253481514172
29.08007891216552
31.267302868567523
34.75114327949513
39.07006930643271
42.661980521471335
43.73418842843411
41.763419603826875
37.89718989521356
33.852202789430734
30.769754161454024
28.657738325302056
26.30414558036138
22.229074838991902
16.15728732178805
9.268029566929988
3.033249493070711
-1.899907432822033
-5.694217430514445
-8.575708531709736
-10.807096968181877
-13.181093017191094
-16.279282125645924
-19.347837132490408
-21.000482610534974
-20.88998002216225
-20.11304634614786
-20.094023474424247
-21.28861203929673
-22.90175645838606
-23.691229977699063
-23.116902255549608
-21.962360169334058
-21.72823545023683
-23.176996941340906
-25.529804130852398
-27.052166290479548
-26.435899077367083
-23.998000280810807
-21.603641358412382
-21.064085843107577
-22.62479463544074
-25.064042727421644
-26.824919019135585
-27.1276837194939
-26.46609476245363
-25.831386361037197
-25.470727845935382
-24.84608573736341
-23.590059079272727
-22.127705497476917
-21.3372035522698
-21.4812472989622
-21.616269207323626
-20.592792050014815
-18.52172910051454
-16.662935169677077
-15.932092266076149
-15.763011168026628
-14.400039653502434
-10.71322369578904
-5.991539294804909
-3.286880032079837
-4.6762195259563315
-9.427998350039612
-14.616520759182386
-17.29215244854991
-16.38439119650868
-12.982630286622925
-9.12053421212345
-6.29650308394141
-4.814789525100679
-4.133545099753081
-3.54284438580046
-2.6714756401658404
-1.7674067554399695
-1.3037479728867838
-1.1390508820065428
-0.511839331342306
1.04725757006099
3.044902258149258
4.24119072985871
3.6491394543853923
1.4814679604830219
-1.066419702494873
-2.893696314009235
-3.594633534679665
-3.319801562365152
-2.448836217813821
-1.3227057160287128
-0.06690327044474809
1.3891625228114037
2.9464466424607294
4.03821105243527
4.0584313280352475
3.2523554904928327
2.8612876415562316
3.881427997647412
5.749943690297849
6.583432524512279
4.860362666672166
1.0558782524224755
-2.558495581644977
-3.824028145291878
-2.1368546702562887
1.4454486999525518
4.901708423835797
6.6633981692412165
6.750654739782088
6.136890079593165
5.359044600801982
4.510201187447793
4.15173852103814
5.200823036548407
7.732822439191086
10.29021237690544
10.893581005029464
9.037925115020265
6.1060969821652
3.573495137938653
1.842763633243099
1.0363704025028924
1.6483395770977152
3.7440916182869595
6.045664131390681
6.544555208846046
4.379491782582585
0.9958341031464293
-0.7992575703705448
0.934618693941332
5.570058929427293
10.107800768247548
11.686598926840778
10.309826857071712
8.554151108144254
8.978284919375568
12.579730972794527
18.54784075219932
24.232061130095797
26.379683319091093
23.60284957961368
17.523135551823792
11.497125677253512
8.207782858984002
7.72789711565518
7.684463181512203
5.9989195850746535
3.3487540222142673
1.8893096419366187
1.8172835939017982
0.7170356151915426
-3.2324074027309173
-8.31673869072875
-10.439328077740013
-7.408995219677793
-1.943668852819918
-0.08686418215479963
-6.668395058793532
-23.159739631366243
-49.55803167393554
-84.82031758139455
-122.05696163222498
-144.85326045962015
-132.41291171224796
-70.99232265815074
35.17383740237569
157.26705328631766
247.1277709660523
264.19054859567854
210.31943415827877
133.52311400520097
88.33073018239651
92.19272454411437
120.32677580317451
135.84636085745223
119.68150833826707
77.74436623488111
29.805972437140046
-6.405198189815731
-25.071890711512722
-31.31738254828184
-33.2329396898687
-35.16729602792823
-36.913060869577194
-37.10189536988668
-36.136509721862915
-35.74880489789318
-36.65867331117299
-37.87571898749708
-38.403790044117414
-38.70914139549511
-39.83019954241522
-41.355287587756436
-41.25801892816367
-38.22551018684116
-33.6261584547274
-30.414215932063346
-30.0823943964814
-31.3925007972566
-32.15720805386533
-31.434751091225824
-29.871183509645736
-28.667576557764377
-28.471120606001367
-28.869075158400292
-28.76443305440533
-27.377976051780003
-24.864854033886097
-21.82976511332851
-18.638314833283527
-15.71880005692459
-13.740166515334867
-12.569473820065127
-10.912775615643726
-7.780632606188973
-3.6601429363893425
0.2724419898980777
3.5730348815118473
6.737430496130783
10.471163006060182
15.053748445223691
20.140574576381663
25.016920885375363
28.988738873482234
31.635789857390932
32.976637181823506
33.541676472862946
34.17071095083104
35.4131791401427
36.96393545226631
37.83218741248483
37.28931223371134
35.638655919526975
33.67664891103212
31.390086743182962
27.742062718673466
21.84021393870689
13.997846892434245
5.830936747178342
-0.5546397442920991
-4.013391883680964
-5.259015554435441
-6.153355552538907
-8.138617925704564
-11.29949180249204
-14.703354813423926
-17.363356745891906
-18.817391384309232
-19.2876824702673
-19.570885673711278
-20.354033942308487
-21.376197496225874
-21.654110774729432
-20.92169680667849
-20.461778263053365
-21.858339041257665
-24.985361879235548
-27.750639579057687
-28.053144252999815
-25.87992893386165
-23.265233840280484
-22.062137660375775
-22.102151823241666
-21.94304284477362
-20.987428413128935
-20.157964509509743
-20.495608645067062
-21.79380123333555
-22.932894909473813
-23.026923140044453
-22.05329417767988
-20.677162072283103
-19.589838241453066
-19.03829815569258
-18.80454407540634
-18.53109907376298
-18.19750647606822
-18.086555724056414
-18.22597637892424
-18.218919497650035
-17.601815879367503
-16.197726060203927
-14.324715395199657
-12.61944125823386
-11.45432769985061
-10.810020398955938
-10.624704123788646
-10.65982432510608
-10.261983411921534
-8.995029257723298
-7.46374013020654
-6.752089263896539
-6.825128628640904
-6.417721411608987
-4.739073334236154
-2.2389592948173274
0.1857145877677937
1.7492542820723749
2.0257065227590227
1.3291509186471897
0.34421379261863483
-0.5729842372330967
-1.2220279706470125
-1.296605231716082
-0.7935029444896218
-0.22071021743242003
-0.11261684180129317
-0.4694478155985269
-0.7728721017729872
-0.6020904105033371
-0.17728784381484974
-0.05198429378626268
-0.252376323347719
-0.04427599858398046
1.2463884408462114
3.234410239456473
4.58333886574667
4.351410060301072
2.9806007534519177
1.6881070545681576
1.0753995330608006
0.750402616944275
0.4450131684320502
0.8759519275101036
2.847221024090297
5.776082626966653
7.864743222267535
7.870183444605145
6.146374624869982
3.949646486790073
2.330085061961129
1.6415588490920756
1.6744446114718823
2.1637690237484204
3.063677352291241
4.200730304865328
4.932536601138063
4.64363557042816
3.5365029372568504
2.4685858469900603
2.092339274388327
2.3748378378135615
2.7909413095514495
2.8243315199317025
2.2218455164078685
1.001325292610857
-0.4899304325367517
-1.5818469562466757
-1.4858499356798418
0.269148423998627
3.241160040037692
5.975059396403517
7.07932009403339
6.616689021936013
5.938785122501506
5.971229173964227
6.237278376238763
5.940286775256567
5.55915209911393
6.613129520773839
9.670057041114303
13.448808476655465
16.46758857352201
18.41133332010749
19.102209980394218
17.72604371587062
14.174878165682937
9.95897307436111
6.894282250171459
5.325901660991918
4.032111836935109
1.8347488762302873
-0.9417262733256301
-2.8304334080084206
-2.8566714686092136
-1.5391689551388354
-0.293743965638226
-0.015593506310583566
-0.42437447768720016
-0.8362976056223009
-1.4444359329662326
-3.559557640317232
-8.634569226297646
-17.993784261382096
-34.00202965507394
-59.91036390460212
-95.56347766356633
-131.18359863366314
-146.25624425778543
-118.00292055349962
-36.045970757646614
84.72441271716414
201.83813174885205
262.76354331588726
240.5503376553895
159.28087716365297
78.35684667082339
46.25749689308459
67.40171701282739
108.69029310239156
131.7714116757548
119.21408207712676
78.7224451864549
30.965764668107
-6.378040695928629
-27.44754461584501
-35.97347513698403
-37.88982774474111
-36.91989333318853
-34.76611440684873
-32.637098066371536
-31.61242910214179
-31.96595677419127
-33.01801939147065
-34.03186535730088
-34.94177655846026
-36.051964448008746
-37.142671883442596
-37.170635361721416
-35.43151382262398
-32.96118041409754
-31.984789228667076
-33.64520988659374
-36.56494182215137
-38.008378738045536
-36.61645557331312
-33.66965035782495
-31.33753939965301
-30.24452870732696
-29.292853584711604
-27.381465383177844
-24.62975137925622
-21.875327429263038
-19.564638695832965
-17.631329948143957
-16.101245423465365
-15.09512950976147
-14.106894026916873
-11.910155983037036
-7.7465267806584555
-2.531716944372835
1.5667864162510607
3.2318374719748695
3.599611688323443
5.179297471161303
9.262316617260279
14.902538519330314
20.122339015410994
23.60144066246937
25.53961500307499
27.28826896680755
30.014737735901594
33.802011597643975
37.931168872930115
41.43833225698198
43.49660157232287
43.801548304332464
42.61200900272252
40.29168947637645
36.981632139409534
32.79654624631701
28.061650279028797
23.16753116442946
18.261493756272998
13.287183676878271
8.343841580887485
3.6784660150000272
-0.5451151325879
-4.148056810143075
-6.940409600315114
-9.07480378087768
-11.18257734615037
-13.836326147403916
-16.683054841909968
-18.46296010978873
-18.34546598536349
-16.981731706626448
-15.862990557992337
-15.916328356551173
-16.963072391942845
-18.23570362797331
-19.131007703571637
-19.541143603814028
-19.793537374746666
-20.517759650579684
-22.225922481209786
-24.582466935268478
-26.298745715419802
-26.113309945249732
-23.944394195527064
-21.05713869935014
-19.08584425547779
-18.84696753083502
-19.942612901359382
-21.237270267589757
-21.648638789043
-20.80920032136512
-19.307611009100526
-18.233712988433425
-18.234787430487593
-19.02160111263357
-19.782695010858603
-19.77595588690389
-18.601554789749695
-16.483885903339345
-14.38137931170949
-13.15017468792821
-12.437182159041217
-11.186786890951039
-9.236079996243728
-7.495782628801274
-6.689345042197727
-6.634391906532675
-6.687781263719697
-6.5268278683736165
-6.321005310903377
-6.220983216732697
-6.0194686663289865
-5.395031394659486
-4.339273707509169
-3.2932371387826116
-2.6068505734842105
-1.8893227831001798
-0.5354890643678333
1.232259445755088
2.536031193682925
2.845240328328921
2.4012906825835456
1.7429540378060868
1.0595294820767625
0.30433655091143297
-0.22296308598628045
-0.036690368905221704
0.7856023868254838
1.585973281390197
1.9704262682063525
2.306810420274235
3.1646317301020357
4.375313053091544
4.916011118371957
3.9664736358006207
2.0109160378330295
0.52022371907387
0.5296325982445425
1.8031931745560255
3.2869426782540034
4.151017883980604
4.425491026911754
4.691562832519711
5.262725500895766
5.857976885409535
5.988750968979282
5.281733051528396
3.4817925686330593
0.8506003787159606
-1.4082112481854905
-1.8979077646602616
-0.19161694935897747
2.9947847727062453
6.267407251553212
8.172735725497228
8.15240500157881
7.032788070073128
6.037721882961037
5.357499880224452
4.16724696322974
2.1473898722908746
0.5448656353196583
1.0198529297734138
3.4470755806767137
5.803032817453157
6.4885587719183455
5.875709654413065
5.2768143324102486
5.313572747614968
5.875964797758504
7.070033182932231
9.427348219465927
13.163979096697908
17.551970034982176
21.143192345971833
22.86850148445255
22.94634816156839
22.161961100601793
20.54195814131609
17.661036955744002
13.868742934456996
10.30141146181061
7.7148438247327675
5.718746525435015
3.4525167313303253
0.9857985728020009
-0.4404349687992255
0.07198957279466278
1.6630479706201906
2.5298432716146837
2.147155495986755
1.850460458896186
2.791699268815011
3.7171793349006186
1.308184754280639
-7.4593122433363455
-24.298475895123723
-50.80444386093486
-87.31996488573495
-127.03054625181954
-152.45904066600175
-141.66865366184942
-80.0995710438478
29.250196525795282
159.05946082447366
260.62273695726583
288.9881160572248
240.09444012197568
159.62793828495384
105.47124847894368
100.85326731537064
124.72094064457704
140.087505359521
125.33338108214069
83.86033910888196
34.399313224280284
-4.784252630247523
-26.575223214228
-34.95890974279657
-37.38694321612427
-38.240903514326114
-38.08027854160471
-36.709429486977186
-35.38139415827513
-35.45302255120794
-36.19264824140632
-35.70754647704743
-33.66046680647443
-31.804249750700485
-31.859821289871693
-33.536753229448834
-34.89813616356296
-34.55243714793674
-33.153537204404685
-32.43518478294851
-32.961459098720375
-33.34524118108342
-31.97076042886176
-29.167374047559
-26.91483845143946
-26.43643168352475
-26.96379384117391
-27.01979398593727
-26.178017300755307
-25.066216191296192
-24.03209944737477
-22.65993396173868
-20.71737372740656
-18.745069050487807
-17.253377379074543
-15.799934103637721
-13.379755223682519
-9.755867322215503
-5.928915769513791
-3.0175312487047288
-1.1289033639108643
0.6329439077519603
3.606107838328188
8.727993212117743
15.577450486076346
22.512719948158814
28.01248733558384
31.43589067636477
32.67765376767159
32.06099246849992
30.791426855859854
30.79173417250512
33.35222721599876
37.70933684744039
41.288823659913085
41.700958220536236
38.462660150588974
32.7828283304151
26.088947198676387
19.319544564082815
13.278124778489827
8.485460892461797
4.499493112060464
0.16149193492679648
-5.126906186360259
-10.636330260446782
-14.99918107885466
-17.400663535192198
-18.134700754795624
-18.340567772742773
-19.095410661085783
-20.649022357720344
-22.584330078391687
-24.377665697488503
-25.56454112288558
-25.775838546963968
-25.043277216547843
-23.993735807963386
-23.39389281218927
-23.491655879179696
-24.07000062216478
-24.903719057840753
-25.8903087470174
-26.890418460606682
-27.470856211993393
-27.062236678687363
-25.666723002142984
-24.047574531040247
-23.07072082481986
-23.119646718275966
-23.991857372718474
-25.155070056163332
-26.256421772579724
-27.34014651286552
-28.359996515226086
-28.741376770772337
-27.85046113015956
-25.880383693901706
-23.877973968657553
-22.633878303514564
-21.94364974828407
-21.24814829478867
-20.414681144037928
-19.53279409237204
-18.558306498072827
-17.617669401661427
-17.09449228337468
-16.916541410500145
-16.28190287254082
-14.540344041486042
-11.909129064406494
-9.057967839874586
-6.537523135772468
-4.8447698146634695
-4.419347139565006
-5.1358197048552094
-6.0485100008888955
-6.122870528930608
-5.31328112202638
-4.53184175793597
-4.4851947307260325
-4.834869367950606
-4.548675703217296
-3.0197978559786827
-0.8382870558479776
0.6543373451766458
0.6097749304503411
-0.6632232693026938
-2.212989049470555
-3.347135775348044
-3.8565553424058434
-3.4863326549083187
-1.7970628869183622
1.0376479620536783
3.843505221761494
5.34709902339927
5.18428592171165
3.8769417220146467
2.107516349611406
0.3124795739204558
-1.0301095333182504
-1.1795918782820831
0.2811872732255376
2.614371542068171
4.157545631373774
3.713063851850661
1.6052849042581303
-0.7491116447714237
-2.181676874646854
-2.6678487515596436
-3.011309364730594
-3.563150813327591
-3.548711965714517
-2.0719904859799634
0.6252812391479702
3.281583682500747
4.732165700490041
4.724096484208983
3.725733054239978
2.289393136391914
0.977209249041406
0.5734856396627491
1.605594549752813
3.5509007737014233
4.960435864370838
4.725644463350088
3.2422773112430394
1.9291445228316155
1.5565421953873724
1.6670398388382839
1.6492374119676794
1.5728635991174214
1.7965199947542798
2.3019022836225664
2.6570440476045043
2.60517021656553
2.544242882318826
3.091924049019288
4.219294517604616
5.256872306155298
5.749817088963692
5.965063018262329
6.4627003947353305
7.22184298741892
7.517403851803985
6.916747302306932
6.131580781280205
6.690074530083388
9.614595936884207
14.24018401039878
18.607232408826125
21.237402651777174
22.224532270443497
22.318793421227713
21.421459910555658
18.74683648507246
14.314022657130892
9.605444741620433
6.444929267476814
5.185967051639144
4.389379478528535
2.694515678026441
0.6409803902476755
0.05312554339773223
1.6238673709209621
3.761819293448747
4.4374115361809645
3.5537128798222284
2.4515862080226563
1.4881591879296736
-0.9089839019862903
-6.918649740867955
-18.18982763595767
-36.861640103178104
-65.80572340542427
-103.58490561122962
-137.87761512642086
-146.87312949635395
-110.0266878038949
-20.90326907770061
103.4333373505471
221.01962235200997
281.5190818103234
261.4970100623417
188.4777676847597
120.75744308803192
98.5976933483673
116.64495494220127
139.67866616533738
137.36156887574697
104.12053966800636
55.03701124059789
10.08986830166357
-19.01906923594233
-32.37618558870488
-36.61636223782034
-37.60262877974693
-37.365364480731046
-35.945127968033574
-34.04634323957937
-33.42987531226529
-35.27862405562723
-38.447970003156044
-40.01742607956862
-38.3020268513927
-34.7820319389648
-32.27422799423397
-31.792676726943363
-32.25887088871471
-32.68708641691298
-33.208459032361496
-34.04256997449896
-34.60091776505377
-34.02973841438514
-32.345261685195126
-30.59470560939297
-29.55646680383985
-28.763786572381086
-27.61826407648472
-26.7605511303246
-27.039982153135966
-27.573968978515673
-26.210539889666908
-22.1332513146696
-17.05298440866306
-13.362364169795324
-11.677166251726597
-10.50998312770712
-8.05571634585879
-3.963470592601255
0.5644738206429871
4.0257933410694235
5.967362861631834
7.271297836407179
9.200103078103615
12.408324248080069
16.8545653202057
22.153712344172092
27.585824712858262
31.984479130005184
34.24741084149528
34.36114700875807
33.81908320718804
34.52234396925767
36.96165798887329
39.74166601386382
41.12033553145984
40.58610590406976
38.60665941359931
35.484303219896404
31.090228729627917
25.44954663978351
19.03898333133806
12.495774405209348
6.4007645525050005
1.1452531677663502
-3.35381379337384
-7.35388266864617
-10.573784926810527
-12.529486197383747
-13.493489523928304
-14.276046279770013
-15.29628152865151
-16.536700557025096
-17.99514063667049
-19.589653836499004
-20.947226278098334
-21.79228921027847
-22.22304127870867
-22.281963273954247
-21.84060483902234
-21.012811821104606
-20.06329735116198
-19.099689432057687
-18.252943233046388
-17.856973010675873
-18.19713056300874
-19.208220427371252
-20.596256669797363
-22.266811930920827
-24.38327581677796
-26.737555418547736
-28.33204990822652
-28.143337739789114
-26.27019282537898
-23.893127833143694
-22.084840490906256
-21.024169305500315
-20.35807840814877
-19.87684853868794
-19.669958602664586
-19.801276849265076
-19.941453802648628
-19.47672147627832
-18.140334088414633
-16.365063596454775
-14.914965231097788
-14.306066482933343
-14.481758226815048
-14.866755898271267
-14.852818741644688
-14.389002849054256
-13.876588762929234
-13.339879551865092
-12.18716915441223
-10.086511536930685
-7.55590921934582
-5.431834386226277
-4.170964956294452
-3.737692742731552
-3.868908391384808
-4.326587339051939
-4.908480573623323
-5.329036721335853
-5.230640872010573
-4.479922100539905
-3.453648333585634
-2.6427875743187577
-1.9743577972137756
-1.0571455668393153
-0.058614269256875184
0.29114915519721485
-0.34159907404153556
-1.5016121767764006
-2.5642685117175645
-3.252051878620447
-3.564091724980012
-3.542206168590509
-3.1895715044377253
-2.5461614449009167
-1.7529282600382685
-0.9521748378207713
-0.0751004002913851
1.0211682548711634
2.036343733319347
2.2836479965054135
1.491776339306764
0.26237106778481123
-0.31382004775435335
0.49788454600531984
2.3443827196346376
3.9213298876856513
4.035763269142631
2.6082426855168332
0.7577894414254385
-0.21550747338371035
-0.0714815712343051
0.2704174402345002
-0.21127236980339625
-1.6313250958445662
-3.2322426243593325
-4.161615154223136
-3.9470668009075744
-2.5899569218074703
-0.620360131530421
1.1099860503338976
1.9624783410843012
1.8237921717209384
0.9164096337533558
-0.32936641548491585
-1.3909788988919922
-2.176845117001446
-3.0424468900361346
-3.902721931020121
-3.872261971793816
-2.2350088201281224
0.3871651687641895
2.289952180579865
2.4040293798493946
1.2899838897540907
-0.07326667130051367
-1.5494289737805982
-2.79255030568292
-1.9568397466367298
2.8194148356368403
10.837898350404977
18.90936333640701
24.0050373249077
25.424980854696326
24.64189442218993
23.214927504186882
21.126453827107486
17.68983235877894
13.456800199486661
10.145832396759772
8.651015525011733
7.899573679119877
6.35182516186543
4.026689828315305
2.1602466008633607
1.4603365871031528
1.5715550139680419
1.9092242259197576
2.321363465300221
2.86686060083019
3.065427379611642
1.4976837931467855
-3.56389102480818
-13.27580884529245
-28.49886063873072
-50.773947020256685
-81.24132541804458
-115.71148941021076
-140.07462318473785
-133.40743738467683
-79.0519481992177
22.73126373120257
145.9036765812291
241.82145855279805
264.8222238635975
208.8417166845004
117.9319785686975
52.99761471994579
45.09937000390831
78.92518912334137
115.2686387211886
123.97660216079656
99.44611657743543
55.90105078519111
13.30283151062847
-15.658237563189445
-29.86601561082691
-34.9016814980947
-36.14298065006955
-35.991377337983764
-35.21293669985239
-34.77355531967443
-35.57068155657751
-37.143483830086055
-37.909862869766926
-36.9588113038079
-35.05896179705294
-33.546149527253455
-32.73465640947787
-32.078185882369596
-31.41893677017609
-31.22260789564678
-31.676688131843164
-32.21298346231379
-32.134356164401886
-31.45286772981909
-30.989901433878746
-31.54400852643669
-32.64451643954832
-32.33863336642906
-29.06448589086178
-23.83344592207249
-19.50094439617658
-17.592141780886863
-16.890487935900513
-15.424321212664614
-12.827901956152402
-10.184482450357596
-8.254422453024377
-6.71238526618065
-4.909613498798997
-2.714599940743239
-0.48823900319150965
1.5690789982369404
3.8923458124145505
7.185962913783998
11.588381008699086
16.51912292886965
21.438865292285772
26.42072572064682
31.64142718420156
36.4587208296787
39.69758080219398
41.07651623286281
41.66290793031016
42.72402863499151
44.546325465821596
46.26985549517826
46.55043583554273
44.425414470009095
39.808626740569565
33.470842537408686
26.66775265846043
20.584829936682546
15.744710276480584
11.693930951455199
7.39559421984338
2.215327936188651
-3.3026911716208884
-7.763056753028833
-10.254342342847142
-11.24209606443878
-11.98873502713128
-13.247551318861255
-14.722971848858837
-15.791018005595294
-16.377812687495602
-16.820422031081595
-17.266718010358986
-17.711532744056008
-18.33298146781603
-19.278672689228458
-20.158106572362446
-20.23127307501483
-19.382658041793047
-18.664740714133202
-19.511207544397973
-22.229813285420875
-25.320931721650748
-26.56513167578653
-25.04178057265947
-22.08496782861432
-20.056434496631866
-20.11996448238796
-21.470390388498984
-22.671064047053978
-23.115494031311574
-22.96440043150709
-22.30770745030312
-21.07541451559969
-19.624532872733745
-18.674793579802582
-18.41993989938354
-18.235694299785727
-17.63673851297751
-17.135959708067496
-17.5752843104642
-18.69587850235829
-19.04262668898857
-17.529149242725804
-14.632105802941206
-11.777230101244578
-9.953033001382266
-9.202134446464074
-8.997324431560145
-8.761336352709813
-8.267316860225437
-7.571617557742771
-6.578858460981087
-5.017582632202111
-2.922034341400989
-0.9665341442310146
-0.0783342811466573
-0.5674406980990159
-1.7382408877618327
-2.360725249523556
-1.7135900410637779
-0.4190973811802087
0.17687948832195044
-0.3630632232689224
-1.1367998967955082
-1.2034173431454618
-0.6151830536548584
0.0568505158771857
0.4936618698339957
0.7270993356377302
1.0046950175087095
1.603922451395265
2.6995151662519357
4.344385995002524
6.101607743260256
6.870179758674713
5.8901928304422775
3.8608298978796696
2.3964251288494305
2.358695735504667
3.159289430936099
3.7076130228080277
3.7026026063425594
3.7776951422793106
4.3741258469038735
4.859259916757645
4.264029135311597
2.6606025195645255
1.1999726835295146
0.8833913030839001
1.7065278548096718
2.9560392970127722
4.007019158710797
4.602736808214323
4.501415971432395
3.430227437773367
1.7904685860390608
0.9119402053745501
1.9076989017306936
4.403710966165065
6.82307844764725
7.809152577232754
7.172306029887385
5.895048332687365
5.449404326456032
6.490289172536402
8.096101533496475
8.792424099764652
8.27168903378989
7.803381931842467
8.83746990328657
11.295779753173147
13.776057642228443
15.38932054669935
16.290732171685107
16.475372290943795
15.645158699575008
14.473158952731392
14.44060808799756
15.845602175694792
16.992913955236894
15.94471641558783
12.558289640323716
8.362959962864938
4.799342087553447
2.213076211300799
0.5324520774259626
0.04094916391467113
0.8911439981027718
2.3041831286972734
2.825771738337492
1.5946018132128528
-0.6842079644118141
-2.377457919453104
-2.730875837271944
-2.952733150043606
-5.500485795294175
-12.843282772197705
-27.681512815852958
-53.2750844833593
-89.9632061240992
-128.85283757121215
-150.44058744933483
-132.4384991810172
-62.02032023667546
53.34753417531383
180.2596688221525
267.75055750324685
277.3408680368202
216.43267177077672
136.8586680955591
92.21205793443147
96.41379182130896
122.85634742131332
135.86651999631144
118.43584206020032
77.1171966376997
30.610080085744112
-4.962257381398226
-24.545531965277142
-32.66381348415892
-36.14815129335322
-38.58234667284435
-40.02126648788261
-40.00096445484951
-39.38972190178528
-39.08553097582597
-38.524267037835266
-36.950054076093146
-35.333086590192266
-35.63607235563913
-38.22663236073723
-40.93954144801532
-41.12070966383837
-38.2979155379543
-34.69645529858208
-33.07166414634782
-34.01200803277526
-35.71362692518369
-36.26040010736345
-35.53749316905115
-34.73765750008354
-34.20626710335466
-32.620710244353404
-29.019088279160325
-24.734690506882487
-22.086944691742346
-21.702813607843535
-22.22439493350556
-22.23387423351323
-21.502202401357785
-20.33476489244017
-18.333531491852348
-14.546436886194723
-9.030764651487903
-3.519290777167726
0.18154890027627113
2.2168102999768267
4.465827610398442
8.277043986531108
13.0889217417135
17.55107002623998
21.160850501182942
24.19490584556204
26.786628481742014
28.830401402882533
30.507520228259146
32.35220668783214
34.71871270172793
37.47460907791007
40.15918603912182
42.06503408680805
42.343674768685354
40.3990152514914
36.087103115091764
29.74389382695192
22.447240565218518
15.826953388696
10.985989090245548
7.666055904109409
4.562338920216364
0.4802741648639607
-4.521995658491916
-9.230806105237463
-12.654658185439281
-14.94540412463639
-16.958608386810734
-19.243830347220563
-21.556453845040807
-23.232642924206154
-23.824198889567537
-23.440398303311373
-22.705211918895223
-22.29898667053498
-22.433141486754465
-22.84661494042544
-23.294101314053776
-23.935009443171342
-25.132647363626642
-26.76077043637857
-27.898766509088535
-27.607495831266498
-25.951770460770128
-23.890956237667652
-22.32308884555221
-21.64282910126478
-21.86861208736729
-22.60409941569607
-23.103251315490827
-22.848322107020596
-22.064410223561786
-21.48405547691746
-21.616840282785386
-22.309132696003896
-22.890383520367184
-22.699275774280302
-21.5784603907821
-19.84495424279974
-17.91058661459732
-16.19394642231549
-15.145546454403359
-14.888817586283455
-14.948983623199922
-14.697727100322462
-14.000049958812843
-13.225901138995308
-12.681583901155674
-12.23167732473723
-11.596810859231875
-10.784350208827501
-9.935122821931873
-8.889465171472214
-7.346826176352175
-5.636454478523917
-4.864460329846101
-5.628509611808786
-6.650981568015952
-5.605584095200833
-1.7907412880909843
2.6843032467768477
4.8358253999098855
3.4156041340774745
-0.46102256786671614
-4.422853630263416
-6.342621246338215
-5.530419421738649
-3.094036332111433
-1.1022820305395649
-0.8802588089362042
-1.7920910041605373
-2.1007317510106
-1.1032876799468032
0.27047642250805926
1.026824709519022
1.449549277336665
2.3711312895332917
3.662500730105652
4.18646621115617
3.0813628506175688
0.8028563030217313
-1.0187707087299047
-0.8843064361511392
1.2060931711392326
3.7879764034291297
5.376955108145834
5.574809629643694
4.838099390384864
3.8143358554429545
3.053230209869634
2.9194916496336383
3.4952420992890394
4.539330403201973
5.543632965921047
5.836191211428652
4.989532868036683
3.5320683223688865
2.790626945126882
3.4518166270555253
4.777144690977895
5.673392253019813
5.923702745445345
5.9056497674206
5.608010836549522
4.7060254430217
3.5703768343033078
3.3547372238836135
4.729952796774461
6.876281274402146
8.041726204468862
7.325703798285647
5.672143426677568
4.664742319298313
4.784821198671244
5.371968215168761
6.005211218415985
7.482510325410393
10.944529472462573
15.894443479085336
20.031079093309902
21.57844095109578
20.877794076554885
19.164297674296705
16.74973335278018
13.363599757230753
9.681861016276352
7.207996510026222
6.482593107381685
6.226042711009822
4.667617474334918
1.6382022265607832
-0.982979931024369
-1.3611592757884021
0.07075596859936795
1.3798046333184804
1.816832376925434
2.4421838380947527
3.959523998894768
4.969596532287859
2.8097422022830525
-4.510127663397685
-18.11465056353795
-39.854061461349474
-71.68372722184422
-110.04812037743066
-140.37708544954313
-140.29428976659594
-91.3103674254849
8.756104565401142
137.04055511466436
246.2811919274297
287.1323866815501
246.657396395352
164.76760427298657
102.49230538293922
91.6275766241017
116.48579421642147
138.37613040096082
130.5432681021731
92.83708479886002
43.42641456829078
1.8962448575289064
-22.78880542849746
-33.32444531340002
-36.866255568938485
-37.948111526413385
-37.27252564932566
-34.98599335790028
-32.8248521971376
-32.557268655316825
-33.84399428221924
-34.865258037009994
-34.7021051099696
-34.1481655358358
-34.14698881721499
-34.41226756050292
-34.012597639733166
-32.7462571027825
-31.54551765305321
-31.552156014614077
-32.70748386793921
-33.479317304785134
-32.53735116702357
-30.376184924856798
-28.549134161714132
-27.668242931669482
-27.03871793996553
-26.217541213223527
-25.956805992584933
-26.97328600786186
-28.282446861514025
-27.740371150575143
-24.461063331259886
-19.93553837703404
-16.332903038635937
-14.194387375191674
-12.190673803872421
-8.823074469088505
-4.071834342118405
0.6146592046391101
4.021779947292657
6.537509096135987
9.459236538244383
13.285342523429295
17.10513060023103
19.799024447905666
21.567680903009354
23.70046927342009
26.980596961138758
30.933764848453638
34.685159474909234
38.009016885511606
41.05667363345967
43.400357056291
43.97172803055002
41.99308316208646
37.76283846713941
32.45739942222646
27.261901876328498
22.651432111173175
18.320399249611498
13.761361605918427
8.883380291822865
4.017366564799567
-0.46436059044099476
-4.332323405953727
-7.56133941348855
-10.36423557236738
-13.059559198272053
-15.891801396352665
-18.78136633379646
-21.190022221355417
-22.57489835384145
-22.952958590443604
-22.766839501858144
-22.431052249547815
-22.23476904662186
-22.382704776886825
-22.80429278550777
-23.005245158617367
-22.435052463391497
-21.2225415885794
-20.408380842051283
-21.139424996600273
-23.580505227802
-26.67979423072743
-28.90115187492501
-29.164130541256352
-27.336161843987668
-24.242838969854127
-21.296473636750225
-19.7206871236074
-19.784051528957413
-20.76232754460853
-21.69182757937201
-21.98324002777632
-21.466096129399926
-20.379369120148887
-19.21184971855631
-18.277374773173726
-17.56511125625577
-16.89293776064754
-16.097884034012235
-15.198936116934586
-14.409560521660495
-13.953931081849802
-13.839000532934866
-13.858749200575257
-13.80420439955902
-13.480096384000026
-12.59853849484507
-11.06440775468197
-9.462824513788696
-8.798925741287821
-9.37427644747435
-10.239766495293527
-10.104728551809433
-8.522351169695972
-6.074153753868052
-3.7458683575601786
-2.26583493701238
-1.8028776573829788
-2.012035232869148
-2.340363721758226
-2.508754675865214
-2.739463660647156
-3.2976300385294337
-3.9381421405230266
-4.133186750539446
-3.6974176055278902
-2.944527297561599
-2.34310347235157
-2.088783899635023
-1.9367246408099508
-1.502845476601928
-0.7445370522080486
-0.05578738571999553
0.14241935339569856
-0.08759734125078444
-0.31173043687103275
-0.459145302841232
-0.8553238036118245
-1.2977540509859706
-0.8745380181476929
0.8787912869979178
3.029131483328193
3.887058804068471
2.699303694554021
0.4680788909044171
-1.0581476780337955
-0.9468696317756498
0.45262669720081555
2.1780733523971696
3.564947869492036
4.6074613983789945
5.489948895927699
6.188193879725244
6.9769304491287185
8.844883528107047
12.613928477963814
17.651752751042203
22.01753291870304
24.174050671049027
24.2863246575924
23.472343388423866
22.109110622950528
19.51740728741337
15.284491574159947
10.336359306346788
6.1943876162142
3.486649288958502
1.8370283227254474
0.6815183653456848
-0.3065077606013957
-1.1067181201635339
-1.622343380138501
-2.1490501361536376
-3.0318910115509823
-3.774882393875688
-3.3452743245032384
-1.8631948065117219
-1.4240212216298935
-4.768277050542937
-13.671932968594092
-29.39331951310393
-53.81175028148099
-86.91584928938563
-120.74237935761192
-137.30396866441694
-115.56654534636228
-43.71519791679698
68.91450832650467
186.11082881703234
256.38290226088606
245.80346315805488
168.31094862822414
79.36161359429867
33.52386502141619
45.28165246293743
86.84708172837627
117.83414026294395
115.1271879599446
81.66787136362059
36.79415227436658
-0.040480292658354955
-21.025126295121474
-30.08940011045432
-34.493826572242696
-37.838976660135415
-39.78387742970418
-39.628979195130775
-38.29331194905719
-37.145840476313595
-36.47146854141394
-35.836743360765276
-35.34273377324961
-35.71473361472648
-37.198174487615994
-38.702391872637776
-38.43722367060057
-35.83687165850394
-32.495086303662724
-30.645717127949666
-30.987245201431342
-32.42649706095003
-33.65145514453174
-34.23436612735756
-34.18045064170525
-33.186188502278945
-30.910633833115604
-27.76469492644876
-24.807803936355207
-22.772460232647404
-21.55940561706904
-20.569114115620454
-19.25874718796522
-17.499217401843154
-15.468275523356336
-13.23318738428491
-10.633027962274117
-7.600034581413624
-4.350459169927167
-1.0139809501475128
2.8072995795880384
7.621636577896443
13.10018124018791
18.101373183497792
21.89881443777419
25.076000681345388
28.87921795369311
33.65908767585725
38.266997155683725
41.23780349011658
42.35315127856123
42.63771433896351
42.9594718500462
43.1506786434354
42.42128694003995
40.28078014681479
36.97505879723027
33.01449722894674
28.537118888143823
23.354481941514628
17.37760012110415
10.885838301651159
4.603454267322655
-0.5763597370467346
-4.251878783295507
-6.846857321871743
-9.193282584791994
-11.801793309978029
-14.534610880882163
-17.02650232346969
-19.149862602030197
-20.87626826595763
-22.02587967321022
-22.376702560106285
-22.07101484595782
-21.732822869950315
-21.78270663130663
-21.914683358244773
-21.647034777011363
-21.072184054103275
-20.830199872262284
-21.491748920478656
-23.044122897563433
-24.91793450722861
-26.414554610424744
-27.0281548285651
-26.486776588454525
-24.906482749156126
-23.045183288917144
-21.913195215332514
-21.824907717996723
-22.171729466568667
-22.21326259574407
-21.719904334403058
-20.93693726717232
-20.307645791490998
-20.235881724639146
-20.841203861566612
-21.66079273620559
-21.764512369458103
-20.495956838550132
-17.933248006396205
-14.643767028446455
-11.37255610754796
-8.911318308048655
-7.8466071030431195
-8.14347150903395
-8.950721237373196
-9.098360405453684
-8.143375796716448
-6.807043158668801
-6.1014350190805535
-6.200137025963964
-6.385615907237454
-6.057800026444901
-5.535119504729115
-5.561560692520826
-6.176458337644724
-6.445897349041931
-5.380997095864708
-3.054128356582879
-0.756547529908907
0.07808632921653658
-0.7448218824266739
-1.900824415497942
-1.8367724350883579
-0.25790754843175323
1.936792661685657
3.826896710334074
4.997358643684979
5.293487164081435
4.835683766742477
4.201497087173869
4.053283693728302
4.506105782846232
5.09487050600503
5.393419243488559
5.413138831988054
5.338656931748695
5.157713782105455
4.749789552992716
4.483668062106247
5.605809689188696
9.495474325642947
16.155297325829213
23.509994246298074
28.79666752079654
30.979153469707445
31.12866501423308
30.280244209572906
27.979838422196288
23.529101843942392
17.923871800152995
13.508847664577125
11.651564129139613
11.41070801155338
10.66082221217428
8.337083446032093
5.432855610929579
3.603882132163248
3.1547173632485253
3.0627604293774287
2.727633383378832
2.734294093133972
3.462491349892011
3.5616531280924857
0.5825018645348008
-7.1350062664097464
-20.325321319910067
-40.76059167141792
-70.83926472530315
-107.69289354272746
-137.4268904885015
-138.086234367434
-91.00380181134659
6.58624271397772
132.1271794301291
238.31455548907866
275.821262109486
231.15205701397107
142.77445879624653
72.07920510543912
55.37326830953752
82.63734237621084
116.51396706050218
125.52626782159152
101.91393773469018
58.48239712299068
15.184241302196337
-14.09346959255233
-27.373951634405046
-30.903347070426495
-31.51898302407365
-32.220693370203236
-32.81667990931481
-32.85505287592679
-32.96411897604018
-33.56151482658465
-33.7631770281332
-32.65265275457007
-30.956186393047403
-30.299279523488952
-30.92128366808733
-31.26408921942915
-30.165965786593116
-28.45680192810049
-27.766437596802593
-28.405951881603954
-29.085997536952434
-28.633759179895673
-27.357979160722575
-26.366559563375667
-26.094345406497304
-25.896042343236342
-24.804626982994183
-22.573097472582482
-19.96034415425673
-17.866399662347032
-16.332437447477755
-14.76428607634226
-12.974220935816813
-11.256890480631295
-9.456246319649313
-6.853445115597335
-3.2555094995950213
0.46737479417909633
3.44598466557336
5.9769824398414135
9.093442902464776
13.347412487338346
18.321199629928085
23.176019057922698
27.641960928114397
32.093117329926784
36.4309951351096
39.68048238878792
41.13070968647934
41.30459254873624
41.49277492249012
42.49529195182391
43.84239089170696
44.15910523001984
42.260505194540045
38.05847712423159
32.51239426762526
26.65439182944041
20.93259815971573
15.452698577834793
10.261949209583127
5.404974988277815
0.9941369507345822
-2.8912726742480963
-6.389779271387985
-9.703792170258378
-12.757338978996717
-15.27306853190301
-17.12746650804917
-18.38725288226925
-19.112020735839597
-19.396104226863873
-19.567188623652306
-19.992758725511294
-20.69780558427356
-21.44730343461515
-22.041583494597838
-22.332827285902003
-22.194913310530644
-21.672425679908983
-20.99583835610004
-20.43712590688584
-20.27442738002425
-20.66020047267272
-21.393410585658508
-22.017073112694202
-22.278796608474277
-22.434084534156142
-22.794382577866592
-23.015010058201096
-22.349589016486725
-20.791819260597933
-19.547061422345216
-19.847777936271818
-21.426767738312577
-22.824977688997603
-23.12602599704636
-22.624235034495687
-21.93465634227322
-21.21556947741066
-20.20870467055632
-18.68763906823932
-16.91599954300439
-15.624906995151512
-15.330572289709771
-15.65853706403964
-15.683979239061413
-14.98744887524177
-13.839866691285708
-12.480465041053392
-10.87055290509235
-9.08596715184269
-7.614331223897064
-7.038965267382427
-7.266462157563031
-7.437441639327693
-6.971526782170411
-6.4382561584803435
-6.974228775939495
-8.696211915566243
-10.030382351380242
-9.230303989526291
-6.489735889879591
-3.8304839679710065
-2.798384323589513
-2.8420177877473423
-2.2974172620295468
-0.6212988418468766
1.0401648690632133
1.4120047285832176
0.5322737261766839
-0.3729149536697618
-0.15267473299468148
1.1880905100492862
2.8477597631056426
4.3063074671081525
5.282281236054245
5.136149937055983
3.433088656016811
0.9374480409415521
-0.6774716684286239
-0.26279138146080216
1.8652305437692016
4.7006346720625665
7.9463101535683265
11.958010753022995
16.632182753813204
21.127772266778372
24.71598953434495
27.345738872848173
29.055868343386134
29.183819989967496
26.58420230429661
20.96666804153642
13.993097872104837
8.293639412201417
4.988763608592757
2.789766691122247
0.14440069803907268
-2.276639092709385
-2.3930098503286827
0.07489882999812558
2.6573071996167683
2.8446804820726532
0.7441702899011086
-1.3726179019420819
-1.8335239873516405
-1.6731420107642978
-3.8812872950493738
-11.076032653914863
-24.855491376812807
-46.98359310543286
-78.53048590162847
-114.90526720219249
-141.66008641769255
-137.7334083495712
-85.79657191212414
15.365563670948292
140.9289487130985
241.995891233189
271.4663075395047
222.16305159880946
137.77187329679865
78.05057558440674
71.47817635708036
100.8293017149328
127.67585560272933
124.95749347379098
91.0978925054751
43.55986982895522
2.65536585363402
-21.807587157538634
-32.443354179403826
-36.65055288366272
-38.916701457624065
-39.54143210362967
-38.15751726208014
-36.16875233288732
-35.55412239223991
-36.810914085404725
-38.757874720936485
-39.951991937684724
-40.06538037269955
-39.67801098395096
-38.87508266012896
-37.03571860840968
-34.32178858402405
-32.22411513600488
-31.979483080573658
-33.039253908888206
-33.49811015667996
-32.07738958261372
-29.65884186549467
-28.4212627289777
-29.230100454452298
-30.374422546542345
-29.36678847684323
-25.709191091736578
-21.19170509572225
-17.530736210729568
-14.704968206090212
-12.013982392593945
-9.789735624697414
-8.998639863836067
-9.413301552739204
-9.344085640698363
-7.407311353136633
-3.6482380015879476
1.1128897515196114
6.146183414645164
11.01976373601708
15.575505993645073
19.78526009267704
23.58035987621506
27.014572769888364
30.416999065261304
33.96661596811236
37.27707289064329
39.84938356276023
41.78748152332397
43.53453554978288
44.955734301267405
45.32628585999676
44.23807009183341
41.93766156737585
38.819141614131404
34.90193176293758
29.7745143823687
23.154368319561616
15.619699980106974
8.513745783338166
2.884301861408233
-1.2993254954752174
-4.737325773816179
-7.938257510093115
-11.007322727854131
-13.951532561440242
-16.73326784602502
-19.063986606707168
-20.470235632276662
-20.691922401754706
-20.027065466297795
-19.254935524609824
-19.16694196876682
-20.181456155646366
-22.313093673346003
-25.166386826910458
-27.75273668043492
-28.79749284728438
-27.838201973304184
-25.82824728281811
-24.27100286358383
-23.861486488962054
-24.083421274691574
-24.01144845904638
-23.295147237905045
-22.2887838969561
-21.58210931882491
-21.594522219693907
-22.161171106792796
-22.454036510406247
-21.861279975221436
-20.796098921439643
-20.106585772344154
-19.94360726866663
-19.62950031919771
-18.46571192151829
-16.42463555586732
-14.16471349172728
-12.53123613213688
-11.944625432305608
-12.249695863399154
-13.1589514508579
-14.38048532434483
-15.165062067560314
-14.463016837692066
-12.02559070028577
-8.999088301668532
-6.9625313897578485
-6.4797672286260495
-6.904762829335571
-7.309246526582068
-7.167951633894258
-6.384678646261821
-5.080900455999437
-3.514157260481419
-2.172408512662059
-1.5980483337557045
-1.7253765734323474
-1.5876057803517978
-0.22416667439225613
2.036743609579399
3.63218310616101
3.349351934137311
1.602659024216946
-0.12229295236333781
-0.8452342472927341
-0.6106281740650338
0.3431859153844934
1.9354563423984603
3.652026141760601
4.490395476234395
3.829233352676491
2.0924468449782636
0.3581903288784196
-0.6197125782842061
-0.9644473259374943
-1.265809769678734
-1.463862679850215
-0.6589337034107127
1.415134171993751
3.5887888068728584
4.611483058133853
4.552733101814081
4.331287467944725
4.420098152867964
4.587017781495959
4.825044642262293
6.106361503099481
9.806117770858313
16.093345338436787
22.956441345503272
27.387637037928876
27.97966714838119
26.028407858617836
23.754391502048215
21.962137851206087
19.885662789773352
16.853785782830098
13.377592436318604
10.454231499308538
8.222707290933386
5.842960602105615
2.919696069643967
0.48145869505313754
-0.30669441503287165
-0.018085133517463575
-0.2737536497678958
-1.3745093920179738
-1.9983573821273852
-1.2946122526564536
-0.38016828491989596
-1.7121404413291752
-7.586122087009293
-19.84825819556301
-40.800014755866904
-71.96561039104863
-108.72613612171843
-135.90550845968698
-131.77132622371724
-79.65923578265165
19.780930761788866
140.4746252286991
234.4980641354237
257.6522853131396
205.34849570538748
121.5697402975293
64.56089875165212
61.32739186684736
93.84624219705063
123.18332721373643
122.18512003408401
89.55953694825203
