value
-8.097648241654033
-5.465197511053329
14.102474353512289
46.73488504302355
72.19678079189072
73.25942933538364
48.24857615503336
10.129978997683654
-24.024486141064784
-44.40520799749586
-51.703783980895814
-52.12922577861642
-51.13334613272428
-50.62359347835471
-49.88997574935804
-48.16963998907857
-46.128190480865634
-45.00683125720601
-45.0642359242473
-45.48762694955408
-45.55100780305688
-45.409680806754324
-45.71154576674212
-46.523286504267624
-46.90749386204894
-45.81553901851825
-43.259082049735184
-40.29383004484425
-37.89773919915129
-36.176936877177226
-34.717940428684045
-33.34498745815133
-32.140871979799144
-30.92110865571014
-29.278259789073154
-27.209972948743708
-25.312213403625407
-24.173290318764902
-23.535536484145318
-22.288092403930552
-19.629202484507545
-15.916946109921222
-12.174877271977994
-9.18911660245484
-7.14165241577235
-5.791577089733543
-4.679443249747591
-3.025095217842526
0.09125428984549422
4.905182495820333
10.476468548317383
15.434463228454486
19.217205783406506
22.381253598383317
25.71294291306821
29.196312160687302
32.04143836285262
33.745496250089026
34.84292297864546
36.368167801859116
38.62197169383852
40.59591933457135
40.56371125954112
37.216344923847714
30.596932330772947
22.294761441168838
14.50257351741203
8.46640183528364
3.740859575337852
-1.0564096538001335
-6.807892256904368
-13.170550681475849
-19.060622399213397
-23.561290201555636
-26.350952658964687
-27.67277512735074
-28.293588314100802
-29.204109581790576
-30.7633400935298
-32.22604775623143
-32.60037842192305
-32.10150847361308
-32.37519784259567
-34.83761103210023
-38.928720790337685
-42.458426568335796
-43.73012371678206
-42.92698385830617
-41.368258205732786
-40.05173651641024
-39.25597862626793
-38.98616791311183
-39.13238468709904
-39.31279769061468
-39.06559608291149
-38.26991326076935
-37.19001587784567
-36.05831822014832
-34.77651494172571
-33.216684038827836
-31.656094347983142
-30.599325325654917
-30.130623299360643
-29.61979964757572
-28.291833535588353
-26.054141168622188
-23.482594462223396
-21.097521514735732
-19.038105657594606
-17.28005744444306
-15.841439017981985
-14.968787521750944
-15.107003247019845
-16.374778857673913
-18.172592021545743
-19.43517810542746
-19.2965206787203
-17.696347190507833
-15.375812418412607
-13.321538187634356
-12.281223828347406
-12.4603836060373
-13.289420599857594
-13.598454350341138
-12.486147097933175
-10.34336458145702
-8.682532805475502
-8.566305576173153
-9.6229239322621
-10.819213621855427
-11.576296473872242
-11.917765474634212
-12.000426868971083
-11.731391670856324
-10.831495170021455
-9.30878089912965
-7.778370665447971
-7.056538419816397
-7.304719674733123
-7.802518818794351
-7.642034993600433
-6.383319371163539
-4.25161332617879
-2.102439241891872
-0.8927246773929616
-0.810823415428243
-1.1162706374484213
-1.1064531640294626
-0.917249402072756
-0.8927743017852778
-0.724485975483681
-0.014427774523497305
0.8414170676128738
1.2428398518215116
1.4173486322380624
1.9788670794456515
2.815965090186242
3.11842740917661
2.279598448234531
0.42609551996699757
-1.6597392320777473
-3.0185921928354347
-3.239308186523078
-2.811370304475915
-2.655491774816001
-3.20093764132616
-3.980212451293992
-4.13029261302216
-2.957408556499141
0.027090311880292095
5.073002958743366
11.470125772704918
17.1114500676821
20.000452931836854
20.152318387751823
18.9732395107763
17.20751317127539
14.523960017138709
10.710828051175106
6.397574001651888
2.5866170505260055
-0.09125164131605779
-1.5369910419080006
-1.8801690104898596
-1.2451864980137746
0.16122200528879826
1.8289378005051216
2.970405617351486
2.98113898114697
2.077732873790211
1.2297767113253417
0.9757732632599894
0.42705449122570416
-2.2983453043778135
-8.991148801704732
-21.104382685287092
-40.319257716525954
-67.44348463568592
-97.93342063826799
-118.28792567579178
-109.64977464996255
-58.31258345136878
32.55041907230216
135.99910250103085
207.76895747845316
211.85104363463688
150.06496615735824
64.86843624601305
7.98448183072965
3.960815049868148
39.32359239695581
79.97181815328968
97.47509699628246
84.28926062092664
51.82427283932523
18.135818571199543
-4.521033064100648
-14.496919731940482
-16.698735026671464
-16.01801874083096
-14.705929316034805
-13.525475657522001
-12.980216048394947
-13.17351401854152
-13.476206043597411
-13.12504200780705
-12.251531234182252
-12.008739841970945
-13.454732116897967
-16.320077428773317
-19.0339911781358
-20.17108463566681
-19.799613043743662
-19.013363555607626
-18.24428890619725
-16.785024090271065
-14.183009805427126
-11.40576578696503
-9.979199356224907
-10.144424574447305
-10.521502236202005
-9.634781310335796
-7.226783419043468
-4.1012142090558825
-1.252199938587466
0.6681320541098462
1.427450103714311
1.2682446026410172
1.0159365825055842
1.7801709632114129
4.07791364944501
7.298575749378655
10.43663910443845
13.196844061640816
16.01266009237057
19.227807538145303
22.605092861464893
25.62553481931042
28.092756272570043
30.323437190663817
32.860142922336614
36.01676994548758
39.51102654664736
42.59148943052479
44.733910477036005
46.0981451079851
47.107222737333224
47.782210624354825
47.65425865867935
46.22258364037783
43.50525950854386
40.022103015208764
35.95656614867178
30.593820334201546
23.207329974318093
14.47224369120827
6.3135451793147785
0.0682959307213056
-4.604457680698508
-8.661280085474896
-12.239080725734969
-14.705359257378973
-15.746869220766204
-16.06735912757297
-16.839640909137874
-18.526955111320788
-20.54998096428659
-22.067758286054897
-22.715742765648404
-22.675519894225328
-22.4100641931702
-22.357506085049298
-22.91207511565631
-24.493761863452747
-26.895142350945093
-28.7447598287619
-28.628963881109325
-26.700836225995772
-24.596056079026802
-23.93780391172822
-25.114569505319025
-27.234194891539648
-28.935777263500526
-28.721255376707404
-24.474619030430578
-14.609947341054589
-1.1139426678505064
10.851122422811528
17.630218617823946
19.28171296407237
17.593213184221916
14.223157389437088
10.611115224184301
8.281063840633085
8.05518293216645
8.929032020378674
9.219041302864467
8.935167654298699
9.245045835737562
9.956710423685488
9.657243021870448
7.850119895853108
5.116043552736301
1.9632088706529487
-1.0753235464735473
-3.0941005773976
-3.667829045196993
-3.465920111818913
-3.2994822501972054
-3.279250081476268
-3.272085440043787
-3.212344460321146
-3.062699400580585
-3.021486442284692
-3.1803928312893013
-3.245672587506354
-3.1229148642621114
-2.999835988207434
-2.955049494036717
-3.045014916364043
-3.1770778323555215
-3.0877469757092344
-2.8904891664918133
-2.8794203460793355
-2.9902567383175245
-3.073487721104919
-3.0446134886110134
-2.8577399571035875
-2.7642905831439695
-2.926490335966974
-3.0491065990247943
-2.964465906155506
-2.8150961353621735
-2.7254291071474923
-2.8247879558890485
-3.017275266342659
-2.963134650566644
-2.7336529136779504
-2.6759013698370238
-2.8006604237066672
-2.9491252827801295
-2.9540082661051223
-2.7290493017224757
-2.5865464226194836
-2.7671458479641786
-2.960343047931898
-2.908274395169028
-2.7144443055969263
-2.572722272959149
-2.695065919052431
-2.964163836159059
-2.941675984118977
-2.6607749957313396
-2.5472949011283097
-2.6997771186269346
-2.9316305243257643
-2.9675048079222597
-2.683509364472489
-2.4808932352655315
-2.694160210298748
-2.9783477985633398
-2.9568613432464184
-2.6956372890598015
-2.4886590382442653
-2.6488757883696854
-3.017474809909529
-3.025410066380429
-2.6679275355829173
-2.4832347090860574
-2.6791149306516098
-3.0199842219707915
-3.086373225221328
-2.715679865918765
-2.4350169133166393
-2.6975880061173623
-3.1014167792741034
-3.110790984584388
-2.7517149364836047
-2.458904430949527
-2.674779146350203
-3.174875843572313
-3.214282249127895
-2.7466382391585853
-2.467285138244157
-2.7256685691379303
-3.2112118247951047
-3.309947024287416
-2.8156376720629956
-2.4307623418096065
-2.7637908391085753
-3.3267726197322265
-3.3671391208353345
-2.8637412754178486
-2.450276500821983
-2.7526849979903973
-3.4693442765126847
-3.618639364886456
-3.0363738192473178
-2.448654890529582
-2.164092792669927
-1.8774647639519715
-1.4921147991935115
-1.4620863424330932
-2.2812411229818013
-3.7615270294650767
-5.097819749129721
-5.6892832563285225
-5.753613084097399
-6.42816354496117
-9.527310992796014
-17.097636262929022
-31.408407709917277
-54.8987605012377
-87.54232812993466
-121.84571327109964
-141.1276892654512
-125.6970785805719
-64.61843333287197
33.01702051025504
133.76961714769564
191.56057869838514
177.7157651560844
107.01229858374239
29.621199292460343
-7.083375040895561
9.304419770570505
55.15936898141263
94.36431332770103
103.52339018862526
81.84686893381809
44.605192195298
9.42394908881131
-14.191441365623483
-26.359798870777453
-31.423648743314086
-32.64685751135956
-31.312933713396376
-28.423338093590903
-25.420396422869917
-23.351705055473083
-22.170849704785777
-21.279644572540384
-20.64962086181288
-20.99697786778738
-22.595397071965063
-24.2282700119726
-24.039906304463198
-21.685102340114618
-18.96264434827176
-17.87879575246313
-18.617640245254762
-19.72183385936822
-19.797987591338337
-18.685029018245274
-17.099275294612102
-15.510575121580661
-13.788492792794539
-11.92683418676546
-10.33189199429317
-9.074246488602816
-7.491931024215063
-4.957711817375462
-1.9276577159979524
0.19337270959924407
0.7593187881089122
1.288030301643738
4.133476158496845
9.44636075943855
14.529799174542308
16.66435844414306
15.847796294042944
14.655230743371503
15.918290631343803
20.48055652480089
26.870712051453552
33.04624526889862
38.19243875923684
42.565895030578865
46.24845301097781
48.95208653205259
50.734816757911936
52.07028060003484
53.15342372497658
53.544871717279115
52.53187178212664
49.654519935545935
44.876919319430996
38.28218093454779
29.83278015250473
19.997514342451947
10.571598915092903
3.748492162248165
-0.051003155278109946
-2.3036932505276573
-4.197082777951373
-5.847753717630419
-7.666741177285584
-10.586590162521912
-14.666954284567693
-18.80987786131923
-21.950068541104713
-23.79869235376378
-24.490134411079012
-24.109409411459616
-22.889347199753857
-21.49089288390406
-20.564913905141537
-20.241840228602484
-20.420361308239098
-21.161532971835825
-22.34490016134837
-23.340783751248736
-23.538477398279912
-23.015077186188385
-22.437871529788417
-22.44835150431425
-22.98211057276679
-23.0336130969118
-21.569809008230116
-18.7483879002163
-16.00714066778454
-15.141800032550824
-16.75967498536722
-19.126255804134484
-19.530362455125736
-17.299682461670255
-14.563857063279348
-13.921747504913187
-16.02396581776126
-19.17444125743792
-20.71578898245816
-19.139003731798766
-15.379326593240531
-11.876346376649556
-10.155597299336515
-9.612085532205262
-8.789324684851522
-7.381697093378922
-6.26889209449178
-5.923863365876909
-6.134755727541208
-7.048211222457604
-8.823946688699161
-10.468341702555499
-10.351684855765535
-7.750334942723874
-3.59651915163524
-0.09374371754777046
0.7642093480476291
-1.0416177863124698
-3.4368428552100587
-4.238623931923759
-2.8362229122660043
0.1668672907862635
3.8825642805129728
7.251801673586138
9.089506937003595
8.727809802340188
6.655661870635727
4.084539867552912
1.7934534571902039
0.1588912107460464
0.02134161515266042
2.4095388071428783
7.523079978152863
14.212588241602981
20.45353002756326
24.66320081867991
26.586841214932296
27.088214189373296
27.177900713395584
26.847110461164597
25.0583407185971
21.229032345890204
16.33593628000333
12.382120746224885
10.732828884541192
10.591868833698841
9.556930750502667
6.405992055511291
2.7477282908055676
1.2853565506325344
2.90427751965904
5.79279061036788
7.284435489390686
6.477283147861297
4.768296898377001
3.565564834440347
2.0359982840095596
-2.2856026130754263
-11.507086077447923
-27.09116641509893
-50.21673523436295
-79.24336885495721
-105.25913929787357
-111.32489836065255
-78.96704785326196
-0.7991419931873995
106.30166901839578
199.65603753653133
232.15130245217753
186.62667485305337
92.46334126580479
5.837953822523483
-29.59234493322365
-8.13469422519459
42.73396054520179
86.96208216095678
102.23938015069288
86.89021330363222
53.80063013616561
19.389388746133488
-5.547425521073162
-18.34881977758561
-21.24625658191472
-17.99369977814254
-13.155345025882383
-11.101134872846984
-13.162947994038415
-16.70847583468936
-18.082159442397348
-16.127979514127667
-13.011728553675894
-11.953348564478185
-14.008285411583095
-17.304045554684564
-19.450331114913546
-19.851268505778847
-19.196077283972084
-17.37691057089708
-13.1696700752958
-6.431904122103736
0.5318289667745661
4.655536552554602
4.439264700417196
0.6922016632060416
-4.004726630206145
-7.077284965319492
-7.817678352052227
-6.955775606526077
-4.8503467827557785
-1.4358245299523524
2.3247497326900888
4.772003661623988
5.801999150738082
7.40679047548103
11.481170566467082
17.66898608362971
23.399591662024314
26.083696451159373
25.350450118315376
23.089117441859894
22.009759944509728
24.09818578408024
29.380544103837956
36.07119486229234
42.115109976005506
46.477874079702104
49.26933645769502
51.10307959533076
52.42007370275632
53.25320334918623
53.448057699359666
52.75399836377234
50.75222382979927
47.091941999189814
41.39487065052438
33.13895092528675
22.978037575283558
13.608710906797175
7.746030428017784
5.491396327930299
4.112315393285845
0.14920356883069408
-7.752128470317995
-17.520333705239853
-25.490141834479264
-29.69301550615267
-30.896416569755623
-30.80745546198563
-30.472545949104166
-30.549048316347672
-31.704385995973936
-33.70974241151897
-35.085464948788506
-34.72809926180154
-33.16305441043957
-31.642429604912046
-30.75969047926706
-30.217249299357245
-29.60804296467536
-29.20649522429653
-29.63561361517449
-30.90072669650691
-32.28321809935746
-32.93841099527705
-32.413796607172245
-30.86829871101691
-28.845473394962546
-27.14145959964862
-26.936446378715193
-29.097426777080102
-32.840586346472605
-35.858604580957845
-36.298989839628526
-34.05854095838441
-30.190393355798513
-26.103220141488567
-23.213014596426547
-22.167216205959036
-22.219481959892736
-22.213163226253318
-22.079764716544517
-22.187375604618648
-21.899584014745564
-20.518845982901958
-18.75808779292872
-17.753390197812433
-17.37190810084892
-16.59388023926317
-15.166653105044036
-13.958978877297415
-13.665461285683467
-13.8193167032142
-13.353421119596627
-11.85109918721368
-10.16871342228207
-9.918927752232229
-11.725971544780277
-13.941643363233444
-14.121856712667693
-11.604038765854098
-8.064859887299782
-5.87609099085819
-5.652166564562162
-5.586545936797571
-4.115352698865428
-2.1584836741490134
-1.3880618907861946
-1.7706495862921394
-2.2021017187078034
-2.39244481989876
-3.036459471650493
-4.57657109422465
-6.396294992870124
-7.579535914469118
-8.20897782442628
-8.874479759584826
-9.163988935005502
-7.709854917972557
-3.3581356583718627
3.8593250159584
12.115016590696259
18.466470596890026
21.062027295075527
20.31754360852145
17.742353023866837
14.645762156651394
11.89963179662134
9.806862362049221
7.804399505669863
4.774268195046261
0.49797396930852633
-3.466184708404918
-5.215163707289013
-4.225193289989918
-1.4027528112192094
1.3671028873509397
1.889633218620594
-0.6011927341662058
-4.374283830913989
-6.703553427666627
-6.579534837372426
-6.226929686709825
-10.289164083486826
-23.461953170547055
-48.21986144092637
-82.44590919125943
-117.04742329571282
-136.70773142112336
-124.96871833501982
-71.4168954629601
19.279327791173724
119.4216740322416
184.66282324561502
182.30858072833902
119.78490952905523
41.36466629891724
-5.312030729584022
-0.980005616709184
38.65651601741268
80.16652924531445
96.93812414716983
82.93105949361181
49.5918203741718
14.408134160319214
-9.54321862708667
-19.420500541431533
-21.352502443686852
-23.016139623709293
-27.16463841721913
-31.90937205641736
-35.2112072655869
-37.08602827316106
-37.7812236449687
-36.02631763064613
-30.773998282135345
-23.85131120336232
-18.856803590001803
-17.365043140045746
-17.717389736978998
-17.460870653431343
-15.467213528099322
-12.089387967940638
-9.23712978265462
-9.823411642884754
-14.820733115005808
-20.939704055752077
-23.009322737360844
-18.849540957373474
-11.008567734768041
-4.163705060259131
-1.764883430527586
-4.1653572390381735
-8.203278925668078
-9.600112515128044
-7.458352659226912
-4.989701812173336
-4.652721784175105
-4.760159676517842
-2.0206159491436146
4.598299346599655
13.318278799279708
21.335691557411653
26.46167682814205
27.865642983704536
26.614829268341776
25.876761714468554
28.888051095572923
35.33473356214245
40.99643754746148
42.48658529706397
41.31101038986038
41.64183464043901
45.16672419340303
50.004883309971106
53.56484120464021
53.93407625720108
49.405454173454366
40.139963926508884
30.087525265954728
23.939146671696157
22.085484431346547
20.811513618232752
16.983332813910238
10.793441628783707
4.525851083231273
0.16800626524334944
-1.8227107885325506
-2.3468746203337596
-2.755212692888315
-4.118619830388751
-7.199437383660524
-12.511433083149438
-19.598403445674407
-26.342929608465273
-30.166013246147365
-30.52820422881923
-29.32434397135005
-28.376846391346728
-27.85624078062971
-27.372717679550657
-26.787852336550433
-25.729907807396756
-23.641950849877723
-20.585661765939125
-17.77985688997599
-16.83578663306717
-18.121590289349736
-20.483257581926367
-22.573459292377198
-23.930337094584495
-25.11188486748965
-26.97866788719043
-29.318354202153625
-30.49145297150738
-29.223370337107948
-26.16425515529068
-23.02987396781883
-21.12631477668289
-21.087571092470604
-22.743369373679453
-24.569437466226766
-24.321016387373867
-21.19970146740244
-16.93996976588262
-14.198163207708438
-13.994293825838144
-14.799127011471892
-14.35726899773522
-12.27537113899295
-10.435090347152142
-10.975979792195783
-13.542168338137524
-14.774995490183521
-11.773073134289334
-5.596454542562635
-0.23591156198218968
1.1836561623433635
-1.4315834674784997
-5.773650938818708
-9.088144891344868
-9.903194947725982
-8.427621406105718
-5.453700524757607
-1.3382156031091654
3.422099982068218
7.0817686704130045
7.411780682077229
4.365430167595145
1.075436981924161
0.6698437471635782
2.4944791602240457
3.2493281055645604
1.4834352686917422
-1.3097450416344336
-3.328488367872432
-3.626906196018603
-1.8033606355626086
1.671609017853751
6.12179323028105
11.815506514289563
18.598415718951653
24.10664126003096
25.710204579485783
23.791441616112095
21.298879530810574
20.46325668324408
20.918336843395743
20.632078882187702
18.277085750168183
14.291966363342803
9.348668466704005
3.4503400888870193
-2.326466723552845
-5.433835477375533
-4.625881432302505
-1.3853485480277972
2.08695354596566
4.996656997758629
7.745396534269058
10.126143521126874
10.35739823282881
6.504943068426406
-2.019144678156871
-15.481503429820437
-35.44652582401282
-63.584701917739075
-97.13850113030469
-124.79019576825621
-128.32773049504803
-90.52260031667736
-5.982730076212588
107.23067176136102
204.80668033100847
237.1001661085749
186.06684636207925
83.78602649780746
-8.580305157166933
-43.162894004765846
-13.763954844778901
48.059955573424034
100.55617733066406
118.5650087730241
101.48700581866537
64.68558459286908
26.399059775156267
-1.3819490483588717
-15.108757247786576
-17.19730849570035
-12.976524791423648
-8.402853632963422
-7.907214973287408
-12.447938121010514
-19.121143223151446
-23.362386031267675
-22.458007136451595
-17.722383974680955
-13.501125077676853
-13.139932389937327
-15.639087619804735
-16.997606500800494
-14.506979560449036
-9.012534015093381
-3.493383160017344
-0.4836646474760373
-0.7298879282650371
-3.0972084498141497
-5.584378996860141
-6.936957535070057
-7.032600862605052
-5.983026002860537
-3.736481397219232
-0.4327004564471164
3.4785059459596175
7.426866479011906
10.596301887609245
11.846251302568218
10.786955435317667
9.272959980039774
10.66046270198792
16.459555185748524
24.243897461442902
29.98608408937174
32.42039132114719
34.289556675235154
38.907014391980255
45.93312141147868
51.42856009313439
52.260108605500086
49.51484038336035
47.13403213081027
48.01449559811805
51.79750405198746
55.896889753667374
58.24349593604611
58.76429020621278
58.500135075950745
58.06268682909779
56.839670133568106
53.19220289305764
45.993724294777415
36.51315957747947
27.8394449467146
21.87180036270274
17.66185310270122
12.839317889927077
6.1957543790035166
-1.0852067287914489
-6.741332327898069
-9.829814786657227
-11.562876513588929
-13.943043915796931
-17.73635371824581
-21.747727343719312
-23.94678991396042
-23.10402412347711
-19.68577770979629
-15.92620264532836
-14.777065904277219
-17.755854373725292
-23.703865032746176
-29.94307402667692
-34.2017965992324
-35.2876719682556
-33.19603694696283
-29.679254506917058
-27.473008402534784
-27.47615795425834
-27.643172438554934
-25.528768845689893
-21.340033011551895
-18.357843509532703
-20.03192432456827
-26.25185767601746
-33.21120055739093
-37.00923429821366
-36.57860551979186
-33.47381778374551
-29.83945284700753
-26.74335720892305
-24.006742898751142
-21.220475816668642
-18.826342397530546
-18.215339626645683
-20.41251001982304
-24.450181513111385
-27.452662210952703
-27.016225268092583
-23.79845580401495
-20.920386618555206
-20.28170775999675
-20.803314242904648
-20.838212902461784
-20.5366498383745
-20.911738887646376
-21.685318185811045
-21.24893755406231
-18.941003673758793
-16.238683517842507
-14.783492650126679
-14.345196448537855
-13.564982815561356
-11.675020052084403
-9.131971675786977
-7.358980665560539
-7.699576488510793
-9.667221367273823
-10.68384907302364
-9.038953733557111
-6.616248957113262
-6.939543688971082
-10.990725380407312
-16.366093299870847
-19.78760659041081
-19.48154869754471
-16.239188572504695
-12.704624390716377
-10.596001638242358
-9.05421006552594
-6.651812466682923
-3.745275477254416
-1.7778417786833145
-1.3217216844913504
-1.550378603459451
-0.9732671187404146
1.768080072659806
7.456240168391176
15.669534326044356
23.477344409017032
25.691349742063508
19.35170991350326
8.050247874416405
-1.0031038361904692
-3.8564592497708574
-1.7455307585677702
1.8917553891451648
3.8718846059739205
2.6130423459213716
-0.5219875470571111
-2.084676934274337
-0.13919431920534275
3.491234466013788
4.9676553969993895
1.973706663763482
-4.313256609170548
-10.313941594102163
-12.743882192330753
-10.272726992340981
-4.131443148383404
1.4662623176204694
0.5592912933942166
-11.197503806383
-34.31889775986243
-66.14529845966268
-101.00014310855205
-128.55783445711486
-134.74978728164356
-106.70355058879
-38.98959270313888
58.68476400880323
155.29786232493154
207.00580045129323
186.66403499922677
111.59246577169418
35.05850297490603
4.141739341543486
26.308830634299802
73.07434650576234
108.15346901348937
111.5118962798632
85.60322625685552
47.44295356860946
14.212958216271806
-7.658731879992715
-20.82824434499071
-27.88882634935446
-28.165479731374656
-22.178079400474772
-15.537578249329957
-16.353501386376706
-26.818560490828812
-39.08172840311616
-43.358800121898014
-38.58749533386917
-32.05207716109433
-29.975675965536063
-31.292209777568633
-30.85662595883901
-26.39225363910002
-20.786616993621816
-18.373490802330046
-20.041714012199368
-22.315994509654278
-20.431560534667142
-12.161215068290907
-0.7529974884516077
5.789817382429693
1.510322937080523
-10.80876042854913
-21.87384479174159
-24.465865024068904
-18.508525661587882
-9.458773219797774
-3.643028220087974
-3.844993805035358
-7.605724925910887
-9.845657401738725
-7.377070810431325
-0.590091370248097
7.915537052113521
15.031415646210409
19.262937088477557
22.325555508084538
27.139285263917245
34.244948879607264
41.60630218359384
47.19395012752068
50.5281294469926
52.476481586098245
54.161397766187214
55.83648366365924
56.70171312415219
55.13068737326785
49.26204075140335
38.67593286525019
25.945181419711353
16.167601158070855
13.607615494383396
17.391389743183908
21.63430986598339
21.522536231845407
17.851212004825655
14.01540108265321
10.80825811135216
6.336205610151168
-0.4329644773379733
-7.870022593082557
-13.241238505401663
-15.520691113609463
-16.366959818168574
-18.301032496570308
-22.611951654350214
-28.897492549464673
-35.52129042293283
-40.24240663949443
-41.22295771616427
-38.44364183510709
-33.93789919695093
-29.78613314824278
-26.276185018690207
-22.39919181888552
-17.945162989859494
-15.687705340834384
-19.974737687368552
-30.628239842708254
-40.807428908590126
-43.69683146977306
-38.53278317605162
-28.76834799881707
-18.441764039943557
-11.964560367898327
-12.898963388245047
-20.601273176831125
-30.516735981609987
-37.9539565864524
-40.61635300894545
-38.849407883518246
-34.38489796078659
-29.001554086109067
-24.02389418275002
-19.758502048064795
-15.462306445750388
-11.034178066713366
-8.110051323572996
-7.928859664007773
-9.118168822429222
-9.79691904377269
-10.345865708293447
-11.622367690803461
-12.782281815391672
-13.209817865978916
-13.948006260434529
-15.667088977102907
-17.264281250894687
-17.1220338281899
-14.821569742804638
-11.292880992763607
-7.725750186459255
-4.875754341609835
-3.048306265042449
-2.118599306723909
-1.459166881613515
-0.4012609024002818
0.6342160781805121
0.2322124223853721
-2.0852239506749797
-4.823812076639609
-5.9033577928145
-4.6489461817467514
-2.20728330448918
-0.213115113818112
0.7105348910956425
1.0598473474164747
1.2206586775786152
0.6009787927898953
-1.4917926103260923
-4.305786309475195
-5.917056036534681
-5.3390204175255125
-3.5661285186842218
-2.104172493776076
-1.1373497966344088
0.019972295006430718
1.2256868213955143
1.561983727728587
0.7420766373910741
-0.4288590961006955
-0.7807198077500745
0.22682876345054437
2.134140235284801
4.122905695159052
5.854165631823175
7.559096104918643
9.541020373817584
11.841081374239797
14.428701992249714
17.43568694700586
20.754871557148512
23.6251805217573
25.29807184646834
25.850617662371462
25.75379951589797
25.07806230836917
23.370747175119078
19.981204704210107
14.939572188533978
9.786536223737953
6.588525161024009
5.849617783904344
6.330018274530612
6.887600983085891
7.521630434611126
8.444925430762403
8.907404900742833
7.830014725125414
5.584932833256542
3.977816680570559
3.8319163959381064
3.3847379522843015
-0.4092339123886942
-9.570167350969728
-24.566488272722495
-45.38790448789303
-71.07479028102958
-96.48409400554296
-109.90232316734526
-95.4993022395398
-41.30188846171903
49.06006794503384
147.51731313013374
209.05181410419772
200.92384401956718
131.78776507382338
48.5801343019196
1.2253119616096626
8.572916615011092
51.82042295640685
93.96678413881338
106.84521309896304
86.48052434127108
48.99529244546961
14.413072676988469
-7.01844531259963
-16.697132821468717
-20.58749920140245
-22.605580286674652
-23.49420939907673
-22.998445046299878
-21.475254150372702
-19.812538673001658
-18.694624320377997
-18.201601143083998
-18.044081438833704
-18.079156561007615
-18.316586491238287
-18.53936250529847
-18.504745337056235
-18.412406773502408
-18.492791963687228
-18.2158803193741
-16.52644768478817
-13.055205825234012
-9.01381684083939
-6.552541305135948
-6.840277923109863
-9.102901161528825
-11.677632125130634
-13.360650690511736
-13.771632865670698
-13.016258660469404
-11.19181731138109
-8.396907790469344
-5.152751852852513
-2.2804792246375922
-0.26597822134830695
0.9237777240255969
1.5191829515383724
1.8594011943035038
2.5983730234084383
4.557827820605402
8.140281371110309
13.007920757594558
18.187722807223427
22.45067158111444
25.281502470001566
27.593450608355447
30.763040314243565
34.94337724765179
38.79616622985554
40.73479493375417
40.209779479989216
38.08880065094328
35.95203308639315
34.8484696425806
34.576709955694085
33.9426646672561
31.701417139433648
27.549779690018916
22.24990153922701
16.775073650522287
11.59446654137895
6.764710975157501
2.3021154772300205
-1.8700368994712826
-6.169681254620788
-11.000902040008107
-16.024907554449825
-20.13378090281111
-22.3135795949498
-22.420960901320317
-21.234233761212565
-20.07795739378078
-20.268261108430714
-22.397361838526432
-25.810917392336876
-28.867239272945312
-30.102901244366574
-29.369001876408348
-27.769903740476636
-26.50774503985327
-25.88444025509109
-25.34171485846496
-24.320933668708477
-23.06695173169536
-22.4598347397077
-22.980320559658967
-24.169441103081127
-25.28192460523858
-26.08384877075929
-26.714376721474196
-27.01534981101356
-26.412887246659235
-24.743034687357678
-22.957632995868998
-22.32886742365234
-22.959312171131007
-23.626419380955564
-23.014923340781976
-20.729782779875944
-17.44666013635969
-14.605458856826315
-13.584207690692539
-14.564662366970865
-16.24353134100704
-17.066008442282275
-16.860101664298288
-16.690279450582736
-17.034252771243395
-17.117468194609653
-16.239446690258998
-14.705500611277348
-13.162874448096439
-11.76010524908923
-10.285962984968744
-8.76851539724094
-7.51613596233994
-6.572356640605443
-5.516522585177998
-3.9713964279526626
-2.097932608761261
-0.48670095835488125
0.3500041922812921
0.3316430669914133
-0.2512114631744742
-0.9892010233629693
-1.559303866563294
-1.7864701434841037
-1.550948662542714
-0.7772661411570043
0.3814288410952411
1.5750562078158197
2.69597297146253
3.9659702681490163
5.244062418292819
5.711536310774243
4.818973225701848
3.259536506323886
2.518419477758648
3.507754324871458
5.707734613015134
7.564861180390268
7.863744605282997
6.791114616142563
5.657767237589804
5.70143132118716
7.211438195147332
9.78880630975616
13.201288878409137
17.52958298397735
22.40256404514675
26.470230789260192
28.15661814029043
27.243569387489014
25.28553315004983
23.978345448471316
23.577883640961435
23.228423225569717
22.116671873313486
19.888666349248346
16.59784905533376
12.798139391756454
9.45662164842966
7.453552480026175
7.024219376936143
7.586062952840938
8.25310838743156
8.722349858652498
9.39160852697036
10.28229482061163
10.178772731840855
7.306602348161817
0.6961068559825926
-9.795818736477656
-25.104279510305314
-47.49007472149412
-76.98553026518198
-105.69595672828154
-116.8150238751069
-91.75650959070836
-21.810310698643157
80.70728288774065
178.83517976361136
225.8891668620909
197.61760060922478
114.79640385166593
30.261419746938227
-9.569131569560112
6.004029693305274
52.41989128369721
92.95418945059973
103.3502046917083
81.91576522408134
43.710293245439786
7.212946380056926
-16.632958762562133
-26.834855772292485
-27.75575808998516
-23.98808359521697
-18.476269290822874
-13.042901811537668
-9.16682807189158
-7.752530889257869
-8.5353285102694
-10.516183586625738
-13.00278964407638
-15.732787689930246
-18.06780429309899
-18.902298733722866
-17.823480955702742
-15.802922176344325
-14.262589688752728
-13.639687366958421
-13.130521480675426
-11.839663383194408
-9.88931123881113
-8.247339637354614
-7.68735608057227
-8.017776588711637
-8.280758151763763
-7.693736921382349
-6.254694993467682
-4.459547986293455
-2.8318390820414696
-1.8008891380159655
-1.5601452408020153
-1.6643213996050488
-0.9267958181931939
1.5933184263397002
5.28486304153747
8.392743930317838
10.002306329065242
11.078688952083112
13.297503325395997
17.24068642542818
21.986927987855413
26.078317014626332
28.845771580888567
31.094773531484005
34.14129022063761
38.07246155617011
41.619497996132075
43.786276032368036
44.825337873325196
45.381411770619415
45.301224295952466
43.78163167794474
40.43194589472719
35.70933783558229
30.41127862090544
25.079768594688904
19.852922620071528
14.557604243017657
8.894844756642726
2.918768935352567
-2.8521663692363775
-8.175256971697419
-13.39073536147634
-18.728206502242777
-23.830518142754233
-27.98968480170014
-30.510093612859805
-31.089432510803423
-30.227358311821213
-29.06428063735579
-28.57977577619168
-28.961320863441873
-29.750352533494617
-30.42048994160679
-30.416854681871097
-29.110175305337084
-26.823493798400133
-25.479623923753067
-27.022498028150657
-31.307428230755676
-36.29142246374931
-39.95516163178105
-41.09917988544225
-38.95661299518009
-33.88157527537801
-28.429039198635124
-25.88670238143649
-26.70047642788556
-27.101306604954793
-22.33570301636351
-11.708135290343382
-0.6686170820851518
2.7484316114531704
-5.054177487462651
-19.857015430023385
-33.828368869760546
-42.00162941192102
-44.1274200230776
-42.23453736778247
-38.335381867337084
-33.92966154688663
-30.072593203325464
-27.163785456170594
-24.69821699014925
-21.423477115685124
-15.749710035460186
-6.523540844982406
5.118876236695064
14.87687480190962
18.233649638723502
14.236940382213392
5.3725652516319045
-5.371511527009108
-16.136530768202196
-25.357816486304145
-31.11002694033586
-32.57067734495091
-31.212144963599155
-29.18051584152167
-26.803201078520562
-22.65289783610104
-16.046205590382407
-8.550261624182278
-2.5999884427107913
0.5780824991249467
1.1806594164484048
0.2922422905206268
0.08197219705824454
2.7539401531671537
7.646277182520254
10.433657185874129
6.675501742809887
-3.722864730302505
-15.754832951177448
-23.057331304623837
-22.803396983690575
-17.220510135730326
-10.687371431452606
-6.05848605046783
-3.536221593504938
-1.794254546198085
0.5767058187815085
4.575414450548305
10.986660783181438
19.77806080200144
28.379681484998024
32.00253714900836
28.212705123999548
20.352239418826436
13.880950140738523
10.560639939998003
8.314164299416618
5.127789062151381
1.1963607264239557
-1.9798077440779787
-3.4016463717034786
-3.35444614384133
-2.852210234671551
-2.629774243309701
-2.530504364102441
-1.7221470371224732
0.19609495384263653
2.4102993554890166
3.6242510812692403
2.966400941999265
-0.23183406342132806
-6.448340548232303
-15.217173784199879
-25.46435176051691
-37.388905749786915
-53.81976521997406
-78.41786069672375
-109.20743043913534
-131.81303458682217
-122.53801219991917
-64.2783052458299
36.14926354430945
143.71784475814658
210.2591318919905
204.580227811669
137.2250284355079
54.485497495117386
4.319415445972698
5.446532756466099
42.14537210581421
81.71599741301948
98.09474033154666
85.13873792585758
53.502490813182895
18.506980659186354
-9.276349606771047
-25.638366718955005
-30.31535993548527
-25.74322571616568
-17.05462195202501
-11.092876419316479
-13.771073002470299
-25.980375470175396
-40.65247099461077
-46.61708486416253
-38.78743278379283
-23.52134401045518
-11.924050314851389
-9.480163887717262
-13.884179969780998
-20.83737080641526
-28.823969499243354
-37.50447234618415
-43.67310115141872
-42.25453601268982
-32.497176119141336
-20.758798251520716
-14.410492640607195
-13.912251140898011
-13.481343777414313
-9.256111704822544
-4.354818948927873
-4.76921074961856
-11.589292489327338
-19.62818782908971
-24.160806579869366
-26.327157985903558
-29.967354087199723
-35.23814282854828
-37.64405050568519
-32.57736093904019
-19.577481869929738
-1.9489109493822394
17.11872970004375
36.32312297264973
54.41561547898091
69.37885638567705
79.22691609589802
82.05330167780643
77.51279971013136
67.63777555033829
52.4903047321017
30.117359050653437
7.103661059130883
1.2196383487471703
23.042390532065085
58.99225304696966
83.89823578870511
92.03372614386382
106.12218645706619
149.749686090525
217.8359176065133
278.5502270779954
294.52780781981403
242.33980796011787
130.93490240650527
7.39632913822572
-72.77313504540086
-90.75541198769527
-72.23310973013349
-51.13111698055181
-37.74299274108092
-21.28701286919908
5.7538514669428
27.913897948849286
18.129934784166984
-25.544144149560196
-68.6462336795065
-76.36394060051994
-50.43141333519106
-21.080513948512333
-9.582885223070395
-10.791706464082328
-11.313094770019006
-8.794063383271878
-5.189699286649229
3.4548550070235358
15.155040042113196
12.59647439807218
-16.088671529769144
-55.07733248989791
-75.47186074498997
-67.67668805875219
-47.94589691962269
-36.367911485054265
-36.88386506201156
-38.01981043121767
-28.57459439091636
-11.766723434847481
-2.0224736349343426
-6.732067727221397
-18.776640412044046
-29.283850000216944
-36.17297225848161
-38.07211187879237
-31.368402275896294
-13.676615555349725
15.829798137484872
51.73730111575865
74.34844832239921
61.84215601466764
15.538892404615439
-39.413451225474724
-77.11211938721267
-86.05121223426178
-70.25604785028858
-45.289020040806605
-28.21931627866719
-25.34541569911785
-29.688910146139627
-31.1095078704814
-27.50651832984717
-24.489897184745296
-25.558871674518763
-26.63927579543414
-21.541586751144475
-10.06332499595959
1.8190283839741588
8.717538292548582
9.290114166222752
3.545984825111703
-7.902714154819504
-21.22731101245933
-30.312062396166056
-31.59573932376514
-26.996128381941915
-21.477388151307395
-18.053585583333646
-16.212069865752326
-14.188517503466874
-10.97636641514448
-7.06565541908072
-4.52154550382469
-5.238705409990732
-8.241599466445107
-9.447671485796809
-3.602781160373689
13.468302011691769
40.66879503084994
67.09963767207357
75.79256925805743
58.11062762264776
24.041941502945093
-5.676452979048992
-16.926766901076753
-11.314523912462356
-3.1080794934199996
-8.040651997661692
-28.262280166717815
-48.49018743308552
-52.52171109824565
-39.698051898496004
-21.673382805319765
-9.091642924589774
-5.542714864640182
-12.373872624453554
-35.583157852485016
-81.9970269902726
-143.57416833414172
-189.63749786761858
-184.45886164368835
-116.64231345142151
-10.23015708600121
90.62634155604769
146.05073585362095
139.8772970608506
88.84693810927229
33.21286177469689
10.278647007242604
30.948516801660492
76.87962925105438
117.18022599038967
129.74933820012043
111.72917569886913
75.16975585784417
36.31551981925014
7.509528756518421
-6.650693535332805
-9.558270894238658
-8.72296281477854
-10.452935846792732
-16.80528242818415
-25.47227950995856
-32.22765947852841
-34.26916950594719
-31.876745968700114
-27.78854774732832
-24.947663421565835
-23.899696988176963
-22.56674740121718
-19.224549019997824
-14.87834504679643
-12.085837633742365
-12.232857616584731
-14.188513512626768
-15.468585500160787
-14.91320286626365
-13.644640352637655
-12.993662068077654
-12.49895663379547
-10.726745109212539
-7.51495599783696
-4.587090654902444
-3.759559521022943
-4.918141135251704
-6.014106270605238
-4.957061397097597
-1.5153867462605328
2.552273391282682
5.306205437819367
6.617382745851211
8.024413808957894
10.702584824590067
14.486461053855612
18.476235343092
21.45421259445001
22.574088088744663
22.63735098612015
23.96407235324771
28.208703336300776
34.15903820464956
38.34134687581788
38.60271928021046
36.38208678492963
34.796378915569726
35.606049738451155
38.386517771536575
41.30369459632972
42.18551566656552
39.647789376215286
33.70288924699723
25.431986761864735
16.403082089600165
8.316413492636729
2.448144291662834
-1.2842037588607804
-4.483235291627441
-8.684849700492455
-13.658935884020732
-17.792273910347106
-19.895701387398503
-20.29972926161931
-20.46922140250731
-21.681211565536678
-23.885944772164745
-26.031694860288308
-27.47241795701477
-28.516061671831448
-29.618941529643866
-30.574938331305507
-30.73828840536239
-29.95187952648615
-28.909121426930906
-28.37570029048959
-28.35101698901127
-28.297203556512994
-28.01878943048693
-28.02360216447719
-28.93117781923253
-30.734324880096903
-32.843004830230214
-34.56305359770627
-35.292071230559834
-34.433094735219484
-31.255341270186598
-25.03360703636857
-16.06263523521087
-7.370543672669722
-4.365219013371219
-10.386078219167999
-22.63859171993571
-34.05239854760413
-38.904356886271835
-36.327198716631116
-29.755980560961138
-23.924651322568717
-21.572175224788523
-22.04382180682281
-22.73697663820763
-21.710637984765672
-19.00414204556315
-15.916508827331905
-13.422616605689788
-11.419198788330975
-9.444664423566689
-7.930285729563252
-8.225154926854154
-10.969694899195488
-14.955352885777597
-18.164410936740985
-19.455106908252013
-18.995420512323474
-17.745622334545427
-16.678059603866014
-16.045478406203035
-15.364593166074158
-14.12927197387848
-12.244627292309154
-9.846865662324849
-7.18732153416866
-4.816399000396304
-3.5301958043832924
-3.7350875162165993
-4.8328409390924385
-5.599518079511262
-5.319834850834868
-4.354217371850385
-3.570024390938265
-3.157261071936418
-2.0134959934427696
1.1575296151125172
6.05260898813094
10.763558918852128
13.782946569939716
15.344927505190658
16.33813956289794
16.804095750788644
16.285359418911412
14.723487162089514
12.14388930744009
8.155934973170577
2.829431668773332
-2.1566657757391132
-4.434795527592592
-3.288356988400665
-0.4110143393697423
1.713506067401747
1.899633244073117
1.004812615658231
0.8360831465955973
2.0854109686941587
3.13919465501212
0.9538363769458666
-6.936091388183467
-21.690838891353355
-44.17154804714585
-74.23977650324191
-106.30005678966444
-125.79519609055951
-112.84935358330618
-52.95309291873843
49.93714890971521
164.88838548378763
241.85349739526038
241.1939845109837
165.14382254923896
59.87252143374663
-16.508200701727525
-31.495436058633764
7.052494589373888
63.68029095490679
101.59623149220593
103.35412890310727
74.995884373395
35.93853477478077
4.231410829060435
-12.258002408450688
-14.353893441187335
-5.909448694549697
8.094865203822522
20.431594712429455
23.4836156018423
14.49901566569163
-2.1419979198733974
-18.801382708779155
-29.878763038010522
-33.69878700068052
-31.564630541156617
-26.098358635791705
-19.827785988075885
-14.585288576918263
-11.489558958415492
-10.801065978606152
-11.655894049566472
-12.346220388974517
-11.351251560438584
-8.381790838707047
-4.633806197287846
-1.8652456419566734
-0.9203255946581805
-1.2087392531991752
-1.4551085159749217
-0.6569522769653493
1.402629248977605
4.1207577188221185
6.59028409787334
8.379678153534762
9.879965764271361
12.024606646683221
15.489297170094103
19.88896242505881
24.11653046097619
27.552628970373483
30.48870950136812
33.49671706365357
36.85302344380617
40.52531111067346
44.31759961623318
47.85774868852402
50.72253254234707
52.92710852074308
55.1873540558981
58.282775622272794
61.97072033131169
64.68153590215883
64.73160470191316
62.01863105924698
58.06488452598567
54.399809269825504
51.309705564409036
47.90451328402424
43.199217769568016
37.185728317212195
30.71528038081578
24.572056803876606
18.8620446867388
13.120663477092766
7.117437107340129
1.714570050935146
-1.358617516934101
-1.032411400392442
1.3859401333827917
2.1447623305217993
-2.0569437008513454
-10.671552909686866
-19.84832437453861
-26.06375973100349
-28.178799049775964
-26.880079031629496
-23.73640367759019
-20.751427399947197
-19.489964734687494
-20.027954886616893
-21.24391505085261
-22.181868107048857
-22.717841755734295
-23.104367671129594
-23.458644245802237
-23.800584244813123
-24.190698461890996
-24.59436307500336
-24.681782016069242
-23.9425368925459
-22.25842833161738
-20.37294025249345
-19.37441652830784
-19.540030436227305
-20.05459298793565
-19.982170586973048
-19.253302917636514
-18.604802237069087
-18.624253025776106
-19.030408564556502
-19.054040386331597
-18.427312555282235
-17.697923999606257
-17.420312080046838
-17.294704143162345
-16.453005905135132
-14.548676971191705
-12.240250130106226
-10.558868195243736
-10.021188702149969
-10.389483229413603
-11.146291619182474
-11.961514429810858
-12.57911308393436
-12.598917297818229
-11.79102553705929
-10.504387587310054
-9.351134045846898
-8.47583837017254
-7.526778178042952
-6.40066223394866
-5.543005622319153
-5.31361727780889
-5.479849182693563
-5.646944685945634
-5.8240919316854
-6.04430776343972
-5.675925874394539
-3.8467717887360666
-0.36090939903274144
4.420068708238477
9.984396727359076
15.343336635582547
19.150226366893552
20.74385726340771
20.39263361045395
18.249892665670135
14.096571937627317
8.673554318085415
4.0842033078608235
1.8823492628839502
1.520067617754331
1.2884004838856176
0.21004376726076424
-1.266301260753961
-2.123953831046477
-2.0741497774729076
-1.8192943377087114
-2.130271719918167
-3.0552013583376745
-4.108625156655842
-4.935122384732134
-5.725507201517031
-7.418594038600721
-12.009889261127626
-22.632410586204156
-42.3132972290258
-70.43816239536268
-98.50503219048142
-109.95052384565956
-86.6082337555977
-19.172591199927403
82.05435203312624
182.30571996957408
234.81874266767647
211.9624566564781
130.24442186053776
40.791832963571046
-8.304555163133983
-2.910762635069104
35.991876354126106
74.26713290203061
87.95078860926797
73.17659729934616
42.27338858295885
12.017471752882049
-7.961278265420515
-18.22988700797436
-23.635124934245397
-27.049956784494654
-28.649369608253505
-28.350848779881062
-27.071462383479417
-25.81283987628445
-24.625969678319386
-23.128225205077214
-21.641096832484827
-21.043025140167387
-21.194814604009387
-20.02318127133253
-15.180828343413232
-7.242170103012567
-0.6280250316363869
-0.03200919484266773
-5.862127366148559
-14.20134442113647
-20.815163771774756
-23.95503184503459
-24.007615250470234
-22.16166888466249
-19.564236434853854
-17.019935937091976
-15.054070629929976
-13.75759497512221
-12.46502420866541
-10.289635535865258
-7.256979331731584
-4.270508291935389
-1.6862472626810852
1.6048373407467589
7.216977027616564
15.03782717899279
22.226202492795487
25.41886099684468
24.056752574366378
20.895403163661822
19.351042274971235
20.91992355782687
25.063047722366743
30.53934761491337
36.046644901409486
40.27024211230251
42.521976792554064
43.38624431788119
44.215017718845864
45.964500128028746
48.4148366202176
50.12737420402007
49.411973246810454
45.853006826774774
40.767341807601916
35.9949728340591
32.139280525408466
27.663642846381116
19.977145333611546
8.029964211906796
-6.220737547193656
-19.079568772671415
-27.656751676919043
-31.414480797801517
-31.941171797660704
-31.626095050775138
-32.17087279011827
-33.63554993338197
-34.80980929450781
-34.82853540396751
-34.208618008776796
-33.98309761252123
-34.09003048936653
-32.86699257153161
-27.91043019840061
-17.753994243485
-4.428481159076305
5.066993654502038
2.7379545638198373
-12.970715072540978
-35.109852853161094
-53.67000576035478
-62.02441401138785
-59.67031152155465
-51.07902587039682
-42.225849753134824
-37.026880677625186
-35.71280152604763
-35.94533226619418
-35.48872470412938
-33.991717004558666
-32.47638272628291
-31.635143794070704
-31.083955755429326
-30.09939183430341
-28.65574910168952
-27.446834855878492
-26.78051652679688
-25.969583799867987
-24.304719112991386
-22.197075123168972
-20.819553622538596
-20.674971149112682
-20.928253667747484
-20.39804407064022
-18.739713007073483
-16.275020328950102
-13.297678028480744
-10.22615608352443
-8.120148300301878
-8.005424655781995
-9.231197181694325
-9.547701233540884
-7.79701431147479
-5.8863376587123355
-7.245001687695125
-13.271742746596477
-21.41761629644381
-27.10812729787369
-27.773763897458295
-24.615562965581205
-20.409316154272165
-16.496170703498112
-12.42365805169923
-7.600924127894119
-2.1765383689827935
3.512340578373503
9.44413875007003
15.877979657415182
23.250278127069013
31.28038978846505
37.03028866995413
34.818771555220664
20.869233608327185
-1.1332917035214969
-21.381992494225013
-31.736834835919275
-31.031018782391815
-23.52748633423667
-14.587634685328318
-8.178782994522907
-6.1739219820650195
-7.8265618314091
-10.291694226621724
-11.013934175332693
-9.861851301490262
-8.807070916504244
-9.887082596195706
-13.95616542328243
-21.55340967880976
-34.68937986474781
-56.326373246476685
-85.42787647355198
-111.02126718481324
-112.75904250191601
-71.49862377842521
15.18200082272437
122.70490206383458
204.9552064660308
219.8109376320977
160.73884861498442
65.93466128659213
-7.874267823049827
-25.162828359809765
8.9676608097365
60.69768396565269
94.81672237542922
95.22082198634303
68.040420083383
31.225956233593887
0.5921966177063034
-18.034400836128597
-26.842771779076845
-29.605409919369126
-28.352763564774207
-24.47477782798331
-20.221650275285935
-17.834549220177994
-17.835836188645757
-19.055942526352478
-20.22976576914121
-21.052060644681696
-21.709657502651773
-21.951909065152527
-21.107184619646016
-19.005455073367383
-16.546873898103748
-14.986875668017948
-14.573738022111696
-14.25992476644539
-12.98527583498362
-10.920919041931302
-9.131196286595468
-8.238036786416808
-7.923070234909367
-7.688812317059176
-7.445014791578805
-7.190474229394642
-6.615436188174862
-5.338979921950887
-3.477529871327578
-1.6556137682116772
-0.25224850328962367
1.1779712063350603
3.5550265315573757
7.4229223432121065
12.46649749529338
17.686638579503768
22.069185318173883
25.231846764480604
27.4141804489682
29.17757225401167
31.339091357333718
34.55749733662574
38.61107510388759
42.458993034413815
45.210183764662176
46.87739355187385
48.16300532523531
49.70690346197195
51.44787457815852
52.491060733673116
51.73353881286519
48.787401175674205
44.27210503003714
39.13333414654044
33.69311321582146
27.51340145892848
20.288079252077498
12.61947495975516
5.660376309531966
0.23584789588292634
-3.6477957154589387
-6.656010576755275
-9.471275177690172
-12.442623603881586
-15.7263220260633
-19.04395168772912
-21.36867561964919
-21.810657873719112
-21.0164282603222
-20.783005329831347
-21.949469850905587
-23.522848397118445
-24.283173219191568
-24.471038190707027
-25.262263804575998
-27.026210150156594
-28.829799345560698
-29.49454564096496
-28.648635908664787
-26.882005847251982
-25.060912286665232
-23.5692547786019
-22.44371766550055
-21.83198513878176
-21.67107393985358
-21.356682176494193
-20.481421475633944
-19.60778813034329
-19.606229021364495
-20.342474339760514
-20.69710859660094
-19.945686253270832
-18.56870821976183
-17.660429517302394
-17.830224658538036
-18.48301656405859
-18.07179281249798
-15.535248662777466
-11.76324444228915
-9.107745187678802
-9.018023246302405
-10.69935941966215
-12.333777848465353
-12.810356192539283
-11.928027333707407
-9.77863647301428
-6.7850118785231075
-4.010870826920968
-2.638918705815441
-2.993857975063788
-4.165636435975881
-4.594126536303939
-3.1712058101651492
-0.024127765921932165
3.618880393365351
6.47764266972422
8.357392288358673
10.183835223646364
12.819450275996969
16.077903401229282
19.099401672508137
21.373979808696607
22.8437240022219
22.980828497878655
20.707542915196903
15.965551881803371
10.56869731607052
6.640278584715775
4.741691239091507
4.012372910979815
3.5270462312797397
2.9157431753641925
2.0059824904784014
0.6875657843113027
-0.6147992067001236
-0.8971088988701359
0.5348679692538891
3.1570072549982746
5.172558785488993
4.523872576618581
0.2735502723605825
-7.445263065618509
-19.31181975064457
-37.619276264773966
-62.86105676778063
-88.07047077916359
-97.29836482879814
-71.6096255220655
-0.9418956073090303
102.23891670460992
198.1091648461396
237.73966212070195
198.72484905548933
105.48362637200037
12.283778420491874
-34.08408667365549
-20.829951910910403
29.76429813356244
80.5619123545845
104.17695693692505
94.56445410959569
63.057534541438855
27.220668516171017
0.24992611573009027
-13.736238615444973
-17.589029747782522
-16.531438822860036
-14.847332599979989
-14.466839298038032
-15.113629815704181
-15.47955922904347
-14.663447418336984
-13.16337151642642
-12.579762587756278
-13.950346735869958
-16.447124556912357
-18.03851180719422
-17.306306871717066
-14.591523441974813
-11.639154756111848
-10.02916136771403
-9.73657449038633
-9.484526596784907
-8.63425325566618
-8.070617292401296
-8.783650257172871
-10.16328286601153
-10.354796072456107
-8.146079668140304
-4.080737087838508
0.2620408014935294
3.851901028013006
6.959394282061753
10.221769845169451
13.44247859045461
16.242436814029187
19.319626311732776
23.430554755589863
27.328151608066396
28.605539997176646
27.041898498309884
25.59362842276887
27.478717582547105
33.059689233442846
39.854667893233135
45.27122233772894
48.79699697245583
51.492254269571255
54.290792147410066
57.04504078166119
58.59986287981
58.006623268454504
55.819693815474224
53.421430729118285
51.257902991078026
48.68684144001284
45.18624915936472
40.91441482906985
36.308098553543914
31.568094056777735
26.6241616362145
21.479430781250343
16.287413352476626
11.012671710055173
5.30752326686159
-0.8549222453233079
-6.447210150016106
-9.934968391374362
-10.756441116752221
-9.867741061148562
-8.947333914970548
-9.377287690679944
-11.543711058462979
-14.568764680688549
-16.846193006026244
-17.197218295253315
-15.821045121612698
-14.258057007843997
-14.075376469820585
-15.319346396383537
-16.570358910539824
-16.582598731837
-15.480593849061123
-14.442977844598545
-14.696950373616826
-16.743448555066212
-19.747365644399274
-21.34248072162893
-19.311543440362342
-14.609600298717718
-11.470794192371061
-12.86287166193022
-16.722390307505144
-18.361358354287376
-15.968432438042353
-12.057146644407455
-9.819802564454859
-9.808478795213134
-10.432322126870664
-10.235964767377585
-9.053131060084542
-7.838721745552792
-7.825972586993775
-9.290303180879075
-11.08549191157777
-11.579646243992865
-9.809521543219946
-6.154544091717291
-2.325618583062089
-0.13760349494419977
-0.04604121878798906
-1.0269034469276404
-1.6861867105060755
-1.3915492682746349
-0.42120415188636756
0.8674291956735388
2.832945781315574
6.374007874796491
11.933667836808308
18.804639366682565
25.58240037341699
31.161957514894212
34.791193586852586
35.218460709947664
31.014424463690457
22.555858726131902
12.949891438883462
6.085922985821937
3.596050673196833
3.6566311755665017
2.8384721543859532
-0.6848698449582638
-5.8320633304901035
-10.099512291176685
-11.674541184072384
-10.390239603792947
-7.374351380375142
-4.192836193352955
-2.3796415194631058
-3.1272572948647364
-6.742979488293774
-12.480236587100201
-19.230889747956287
-26.742488259209523
-36.43677560813032
-50.17579312440701
-66.24443897923436
-75.85843553458251
-64.49602505604982
-18.92400204077404
60.32120269210792
146.87469074991938
194.9771806049815
172.76299084737033
93.42055480171621
7.235625635183654
-37.57223986335229
-25.945085933677255
21.83669492490342
70.03398112884925
91.37715602572715
79.4254362035376
45.96429774617729
9.437451699095929
-17.512708574719056
-32.99912973159056
-41.309611762649936
-46.30005487907589
-49.419897779906755
-51.16737148821651
-52.0105022375935
-51.94886691253901
-50.42925769564429
-47.422118462674476
-44.41608008389421
-43.62478437031321
-45.650126743111066
-48.507351376835054
-49.771441401526864
-49.07227250114176
-47.6427649115646
-46.07332686147251
-43.65369965744646
-40.00247426095572
-36.50025583701182
-35.37908795170366
-37.361463110787994
-40.48606499059786
-41.34978217982142
-37.9121285777553
-31.653260200890053
-26.429124150420265
-24.64751996295706
-25.427340795413283
-26.636775204181337
-27.207697506280383
-26.881563885560034
-25.07187146763756
-21.206916549711348
-15.706933071358362
-9.887131436845637
-5.430009256214628
-3.974703250884248
-5.881571487852513
-9.168589437429715
-10.650185137611762
-8.403304840749254
-3.153196950880102
2.531462592640624
6.526834048756419
8.662622693651244
10.023616679568192
11.531160967597124
13.415074205420648
14.911671806368108
14.178185572855199
9.83749612377085
2.6693010035713014
-5.507318458824562
