value
3.5822981842063175
4.476345539785715
4.559334130504606
4.529728198650964
5.238790505546425
6.159627190660538
6.1721894774748
5.144843056212247
4.296056681336162
4.838072213944994
6.403956596722693
7.24950426667087
6.464212338909822
5.638773726858952
6.735561929223096
8.958050765744582
9.764703520181403
8.161727789296325
5.786589648575551
4.832109860972535
5.19986621249358
4.829299491870369
3.2568590896480285
2.920308502287304
5.5145336190289465
8.903337702467422
9.542113638731603
6.972109140869872
4.5273596797145625
5.397014438004668
9.19580527727124
13.39696196950478
16.380288648604267
17.962478771576308
18.30152627510929
16.921603058219834
12.992294698827765
7.336677140203379
3.4430618948962994
4.456080484852967
9.108709374840615
11.23373746789726
2.2013207434686395
-25.079618147792118
-68.30108871960796
-104.27656107979588
-90.67222297146515
-3.6618548747214064
117.79869257822159
198.28283351798208
207.74812597161315
175.43616669151385
128.14075256573273
70.94782129324926
15.011762122486136
-23.214675504825035
-40.7223779507854
-45.83802847482688
-45.8091590456843
-43.41283876398157
-40.315613494873396
-38.582371493895764
-38.80876893838074
-38.922122550168915
-36.6862094741673
-32.90508438889766
-30.4075337692338
-29.89921326010487
-28.747173325189994
-24.725684857482637
-19.036941498022678
-14.364461381813934
-11.203965610886106
-7.359756030729173
-0.8444320665216434
7.967281701679781
17.18224518434345
25.593208882067923
33.67069999429178
41.67110636748039
47.62031852401874
48.735000976272715
44.20174820731104
35.7073186777981
25.41555490701362
14.282301589795724
2.8481508471860995
-7.407540388341667
-14.636314312616934
-18.36717279301112
-19.81517088196062
-20.435306707292654
-20.6061496389034
-19.741095031578766
-17.92340457983681
-16.758126266069993
-17.66235041967439
-19.956955674968288
-21.58935104075976
-21.6337426120838
-21.052207604165343
-20.878345589002105
-20.866255417485593
-20.27506794610799
-19.122651477834474
-17.973637312479678
-17.094748569786976
-16.336172934123976
-15.187672682100672
-13.225078333214848
-10.92980862377848
-9.179762179299031
-7.850296888641354
-6.038126185621909
-3.7373151350302694
-1.8964628240326693
-0.7067187672185664
0.826749533597842
3.3151180370984332
5.631371484852292
6.24628578834685
5.697655215589256
5.894089798082199
7.217605194007907
8.04104690594546
7.239363971304874
5.82953330619015
5.632843101933329
7.044944293143184
8.370945886730876
7.971878679793694
6.839604019682723
7.095289910334839
8.525344142173692
9.06226827064876
8.243465282074343
7.822659853913029
9.084144293671125
11.18739865064913
12.028440078199266
10.64010727774414
8.94267334418057
10.025877078121004
14.39323388122922
19.149979089586207
21.28704604889571
20.546516550019913
18.69795433180243
16.822370346008363
13.903043258426838
9.06660781671523
4.695749939939596
4.751987570997291
9.504194054360422
13.074410581828127
5.704994574969211
-20.999913228850986
-64.70071080297569
-100.52454895646254
-85.09830019552399
3.815673923081704
124.77651241196074
202.28958924152394
208.76956956893144
175.07314564786014
127.21837940526625
69.47977231939409
14.0412745776225
-21.605669655840256
-35.70005422647699
-38.83392590402687
-38.87384371806017
-37.37357370424972
-34.94794569355324
-33.913369222665295
-35.50242369293908
-37.82011769910859
-38.077162179093335
-35.771531941118035
-33.07003077818341
-31.710040653949047
-30.193839291828453
-25.985618801662206
-19.49351399769474
-13.317775553099128
-8.315729861375786
-2.7703996472753984
3.880722689002935
7.383693674320597
1.6470300124926225
-12.770270971989088
-27.591838726204006
-36.137735621462625
-38.70648682573857
-38.89254155802332
-39.11197000729397
-39.74743775943661
-40.03769360431924
-39.26298562230241
-37.891042273841094
-37.144148025786926
-36.98755180176616
-35.542062860121746
-31.58610886639109
-26.591775378217022
-22.833760061269633
-20.40793002616597
-17.14688225791711
-11.32003068643537
-3.579451793584913
4.447608900850059
12.432221579899794
21.223343665416657
30.879863047425715
39.53000191917941
44.72536435578603
45.516571582678836
42.527202302376665
36.4339642212171
27.25301716869018
15.394940616138648
2.9594770251617217
-6.861644214932079
-12.42129186543005
-15.124823527072662
-17.24638948812754
-19.20897994006616
-20.14025621064919
-19.860759312441292
-19.195088479958166
-19.02885692536111
-19.56899542580977
-20.175179269504667
-20.175732683821128
-19.954403700680018
-20.58659246134224
-22.316370864403943
-23.693787960204357
-22.908826196029512
-20.223054421356682
-17.887338487775764
-17.42339491668926
-18.025405717143915
-17.76889735773497
-15.82533454328538
-13.318424356294315
-11.875848114904901
-11.298480220064212
-9.934630831001458
-7.591689781417934
-5.939338644596958
-5.838704934099422
-6.083401335462293
-4.989726318855387
-2.577097444938178
-0.8090774843543395
-0.8512313690339504
-0.8272200160953735
1.4115144463885798
4.410721989238141
4.771123497721424
2.0272909189824384
-0.26499965134389014
0.8735771267237082
3.8371785479947786
4.733344242392642
2.385271078159921
-0.1340186483838426
0.7939134829617248
4.442803781712824
6.47653510374469
4.462505701480255
0.7516630420977788
-0.46063225824741116
1.744513884461193
3.976154853720651
3.130822026956318
0.501076862963971
-0.1572852741044748
2.618363062662479
7.1159323540459605
11.430080994968373
14.947674101553028
16.956178540621114
16.049427762475716
11.413091600593035
4.289482615234364
-1.416779445752957
-1.5595857681598635
3.5332370021119583
7.6193723398321245
1.9702454664918816
-20.197005460528324
-58.92640188371204
-98.3464369383402
-101.5100148139956
-35.38917666074172
79.99830829123681
171.36362860897526
191.16994524871
163.41387794255104
125.98564755418715
83.20232612620798
34.08701475322695
-7.347920071134577
-31.340147537477566
-41.480822488549144
-43.801729400647496
-40.95813564278918
-35.846182550670505
-32.9108062789703
-34.22958189118863
-37.124382468601866
-37.372815569229196
-34.12910961971684
-30.421309844829615
-28.825014122376803
-28.042420579802844
-25.14122880630389
-19.986991284582622
-15.055973667739284
-11.437845671149097
-7.062254414416092
0.5575225222528091
10.807397122814875
20.54130516412417
27.92012563907172
34.303064180414424
41.59407237651818
48.60843753714109
51.81402792365821
49.4530411610064
42.88239865696879
33.8202782204863
22.701912226667368
10.052894955051995
-2.3720535495825343
-11.99225141332297
-16.965784719930028
-18.186617233065746
-18.84237648359489
-20.750185529463607
-22.44467649222636
-22.22514906369021
-20.961881596186828
-20.53870696054575
-21.469051692577946
-22.636925928859746
-22.75632865339209
-21.97232352438975
-21.274639301459512
-20.72746225124977
-19.646361747593847
-17.942427813619812
-16.206453238855502
-14.937975283267361
-14.038492215311186
-12.811042673315926
-10.792429514184242
-8.615801625868675
-7.388410062346555
-7.008070484079358
-5.815244195929322
-2.8482096755085644
0.4923948083818138
2.5213777511848523
3.529245267476459
4.409723772887518
4.820585450709557
4.189384900404802
3.0771319531680428
2.619672466799705
3.600793930055875
5.790154982116971
7.675200635705602
8.066481613260823
7.84039281174864
8.583464887672186
10.078151942950848
10.76760618356354
10.170099233472808
9.469463276999656
9.715010814975473
10.032676654574825
8.900218866717944
6.92760435909617
6.20265226689132
7.39094904897362
9.006455933864274
9.241867073573813
8.045283880668936
6.963824907951661
6.9344433080421375
6.988847372229674
5.620713683401769
3.1958247250360587
2.3911026873270287
5.591315591575331
11.798878986090266
17.200587697740776
19.05296771848075
18.176698545782696
17.238615615108955
16.590875384122654
13.734659907078004
8.260183935006136
4.500720031997412
6.746745482754797
12.728635434653444
13.248015542489117
-2.4614742180151445
-39.986199611079975
-89.77055544572781
-117.3630768456038
-77.69970042532356
35.37895648035369
160.7562403877979
226.52986188065216
222.78590100062834
181.59878376199617
121.81213765370039
54.12649462355071
-1.072680617013928
-31.028597758809425
-41.71868508118781
-44.38332192602751
-44.29115131301837
-42.40197016872328
-40.03590646541948
-39.23637116535013
-40.21488063689442
-40.723844259802284
-38.888342729441945
-35.97938408163611
-34.60436375330575
-34.37764899530241
-31.999497035830707
-26.04817291534125
-19.59186479635342
-16.3263209096375
-15.180706876140666
-11.487916661873562
-3.095565588844447
7.386420642749302
16.597013100652674
24.177210778360074
31.62862059987797
39.07240342272299
44.023082420883824
43.624210448341074
37.80610792212802
29.211755146348242
20.27453294866867
11.06275966517313
0.5744418963269073
-9.981868105520189
-17.212249516705196
-19.47249146748668
-19.03017545182105
-19.313152809788157
-20.864669095936904
-21.46573075033755
-19.976251978925795
-18.274431357000317
-18.72862279528683
-20.895068812429024
-22.172788202274244
-21.472002361129555
-20.554374523090907
-21.298100705024215
-23.12518998344049
-23.93923159071946
-22.923753106926153
-21.644640590376124
-21.73811579422777
-22.256715182154913
-20.98577619221063
-17.90782425804758
-15.558871062403973
-15.67544623978751
-16.855903000825865
-16.26858808356341
-13.012299066806776
-9.25273619020261
-7.5626153374587926
-7.60710438127888
-6.930927558336909
-4.596167729099231
-2.4837705469841653
-2.5487671803794574
-3.804113358986482
-3.5286350184456734
-1.146263524522658
0.7084686154127438
-0.5127438081921251
-3.866692258780451
-5.89605581227684
-4.945366567628701
-3.1102556963444994
-2.937231518386857
-3.818046667027761
-3.4106790667206646
-1.5147493036808188
-0.5530849184458494
-1.956616025989015
-3.894975703585533
-3.7010751276249105
-1.3455949225318593
0.3819130948494137
-0.7774933123808304
-3.4874243664772027
-4.47674075797614
-3.006914789061602
-1.7122245638989078
-2.7521956776487273
-4.691461138292656
-3.98421504459444
0.8697469980288378
7.452436435011275
12.24442153573932
14.238810800409084
14.443219287727784
13.058799862553025
9.08849912759054
3.005886491338788
-1.5137076323470258
-0.3560797050681248
6.148777077322765
11.30274501630996
4.85304223096628
-21.19635762225996
-65.05318898684042
-105.63680929563098
-102.28566692498558
-25.981703758887328
94.22157040973393
183.54100279138933
201.96603033839173
174.2668340430085
130.7922438599066
76.65945958386094
20.47741679071866
-19.88952725927434
-39.411985782413936
-46.952318038710146
-49.60084178570662
-48.16196401500059
-43.922486870962224
-41.322923910327276
-42.63956141115674
-44.54874923027078
-42.70826916848235
-37.65255792767031
-33.90351856189635
-33.67776504303591
-33.89275835360285
-30.628242448696138
-24.32105997340544
-18.92937310286882
-16.688552862706054
-14.82574354240677
-8.5272342676021
3.1897571343297813
16.110854422204227
25.685059290226462
31.798920980899815
37.584228011778016
44.1722226975765
48.27722419396027
45.984894840120496
37.43308162972737
26.217938526554914
15.367951963679538
5.028140874439364
-5.6089818382573995
-14.938943622264977
-19.884856851020324
-20.25405859126807
-19.696572717648323
-21.37699364084197
-24.350762119995952
-25.392065596529054
-23.256722693787438
-20.32932388924667
-19.882984331168633
-21.899629843295376
-23.216419369949033
-22.04821443696491
-20.319714865980224
-20.447897368629036
-21.518688030374886
-20.726650203842425
-17.6803014481385
-15.028501645132355
-14.674055125167506
-15.134905510535352
-13.508411019835185
-9.25880760027359
-5.277086919974035
-4.458491830364186
-5.795494107769794
-5.916429612916461
-3.946745778035211
-2.169217267623176
-1.9317677741069468
-1.5439165500419683
1.0635746628175191
5.250878660058203
8.05868221400058
7.675185252424393
5.712293016713053
5.075882817235765
6.452417493674604
7.780714679370901
7.2140639099444455
5.8737538028592
6.424708192324857
9.302766669017755
11.709402547671074
11.066062512753353
8.759890996593764
8.673922205074232
11.825039904130785
14.555328569814076
13.2970835203696
9.302430820054257
6.795053844331185
7.547736041759499
9.127139423977159
8.872723753092552
8.025052895302231
10.034088446612751
15.57567791469959
21.29380136357096
23.635245488488774
22.494562600860196
20.37386066655462
18.693723265086824
16.027544706272256
10.707062179585623
4.632379172342043
2.5863820747916364
6.49618507833985
11.213182180651248
6.848730669448501
-15.39817767251533
-56.51668393891645
-99.43744621612679
-104.54496622886538
-36.296095411664574
86.47797330372404
189.76160860435573
221.5247822287806
197.03642016550833
149.3788252314538
89.81072297713945
28.910622322962794
-15.121552369882592
-36.53089750893012
-44.208678580854084
-46.197990648386096
-44.024941887237794
-38.686545141983956
-34.03589070953754
-33.17134035305249
-34.97547246018852
-35.8295304936122
-33.99804842521814
-31.51262758308056
-30.891991189514613
-31.065981438107393
-28.789739684352057
-23.428233988576277
-18.036540850188874
-15.188045483883817
-13.324140225269694
-8.536472293320578
0.7845483464585015
12.230802076600657
22.328309479604027
30.195977172921136
37.26497059368537
43.86074395562308
47.54725260627893
45.44043615228028
37.39415672587447
26.273681744469247
15.184336496314591
4.960705641175705
-4.837144183320169
-13.287794735458752
-18.238710116128523
-19.009086578131907
-17.815170090516872
-17.68872903312074
-19.336213701288017
-20.94330678682973
-20.893706654443005
-19.929982223839453
-20.015521821855373
-21.525817332921438
-22.770903271549706
-22.29903713738742
-20.771823647007675
-20.08975472412867
-21.041212314267696
-22.23956949273559
-21.66109747070247
-19.156586739304302
-16.48367804854689
-15.009787205905857
-14.299696688499202
-13.012687194292255
-10.970837194527787
-9.377295872974589
-8.821523842557324
-8.333405292180622
-6.6270668246107345
-3.8556514763722776
-1.6424955710009843
-1.0233514926663363
-1.0530482811815143
-0.006691555733759652
2.3998103044925103
4.584013254257486
5.208017527389673
5.047971898158411
5.437695079930776
5.786993606205471
4.839119333040078
3.2311166316937197
2.770377243640626
3.8269335757854126
4.83832549680001
4.521716158672625
3.364885448259203
2.7668892020956255
3.5246280546361555
4.810427191119812
4.647945645504009
2.1760704830426216
-0.7384277329831546
-1.2349161257570793
0.8963542603942939
2.5740798012099764
1.161424973801707
-2.0105845548510692
-3.0972090751053405
-0.6784518546115714
2.4686113104072622
3.1028426747744207
1.6373476891815701
1.3788881920661105
4.110115774713436
8.39905086113608
12.316218286598811
15.324968631257464
17.291580135528463
17.287131887800705
13.870848233113575
7.17490902123911
0.7493664979216991
-0.6917849153299378
3.690650974719577
8.726786300433705
5.2030168368387635
-16.27875422507697
-58.68149537579181
-107.01485210566355
-121.62999562602229
-62.09267241209582
60.947148211813484
175.77510448792023
221.55241471683834
204.01761938061867
155.91653524033782
92.47230350633626
26.525300109925027
-22.129571311358553
-45.79442201942931
-52.82119888049556
-53.278438900251096
-51.34849130965789
-48.37351363178733
-46.107680638470114
-46.069655417115996
-47.63061272040736
-48.21669754609413
-46.46372067376774
-43.8809166591177
-42.32863009147594
-41.3367079459804
-38.77913125972931
-33.57133760410163
-27.02097726302898
-21.2969028058814
-16.715446093524147
-11.23997946790914
-3.209646284682612
6.510911237815293
15.967381865340187
24.44134046654037
32.124583261858916
38.45697275104262
41.96557183481555
41.021258350347416
34.873259465064706
24.88389972082978
13.789114650616922
3.45222243419756
-5.696855391719078
-13.370812045101275
-18.63096111747861
-20.979136869916015
-21.53977979922763
-21.975342134959654
-22.71815799963048
-23.06141212892578
-22.62130483335843
-22.285152691071136
-23.40451159144301
-25.888938010236252
-27.931797152938113
-28.06999998332488
-26.57322203490226
-24.693596356162168
-23.263264250320432
-22.092187417753436
-20.598747454636374
-18.847346689406898
-17.62644311010792
-17.18349561800304
-16.63748276113488
-15.284101581522975
-13.311192340880933
-11.102362537756708
-8.884332058327846
-6.902118544187111
-5.393973250844854
-4.266039389018545
-3.2197374541670802
-2.3304141030197245
-1.7719011424475366
-1.065836653802998
0.34255926030341494
1.874882280378442
2.242305912269184
0.9988217340487477
-0.686599697704863
-0.8578695244111676
0.9504652917221122
2.7802670896787003
2.7582467680746534
1.6615801620486785
1.817107249958428
3.9764897261170367
6.289719594083861
6.46020342174869
4.550856435696721
3.1244863080101988
3.992603210199623
5.723493027670237
5.602429346904542
3.511796738556778
2.451133080624244
4.653394665737818
8.812153947173497
12.2289485935525
13.998356782788871
15.034607356768031
15.73125676685421
14.60056715412178
10.085299519167616
3.714075949665272
0.023526642225476957
1.9960862125298156
6.896390648943796
6.479859156298957
-9.261420439390356
-45.07569813403389
-89.13459531572622
-105.65634224868224
-55.07159630510261
55.922071773551885
159.1879070606372
195.1560804884143
175.57676642746145
140.4757939886691
98.80078685913554
47.47245386315739
-0.08817492413504091
-29.65550288516825
-41.85455580346112
-44.374431901633145
-42.19635362406124
-37.987045072295125
-34.92459278997018
-35.06660502655102
-36.836812809557
-36.68554619522105
-33.409349574612946
-29.395530185496646
-27.23876799506147
-26.5653973704309
-24.970844790771093
-21.294634015530754
-16.472284614411734
-11.37490628081177
-5.642348163259719
1.3350479849147796
9.470769764521428
18.009334108852922
26.087228501849335
33.671522499695435
41.605576554896295
49.55597705682638
54.79419929789378
54.33580856423241
47.78103633957909
37.52418346287799
26.175707561932057
14.565939360993642
3.055982866459193
-6.63455942365799
-12.65156642136647
-15.2818545732766
-16.481008014385296
-17.541692957841057
-18.205274738989704
-17.855164634812542
-16.938731348541186
-16.692101656535158
-17.854558657761398
-20.031005572780945
-21.904917798142947
-22.613902904723535
-22.71001426015051
-22.704142420447507
-21.75985972465776
-19.14935990696602
-15.92481230861067
-13.75959937292163
-13.18192186887268
-13.615355531799937
-13.74647581274849
-12.170344555919069
-8.86119907956356
-5.52829360955546
-3.592263541058591
-2.200536204377559
0.31678428306276435
3.726159978625266
6.141882645200028
6.241701615879057
4.431353003336303
2.3221066047297656
1.6174402369712317
2.924817783891714
5.134012923684068
6.7387231286588705
7.5483919399922765
8.298412344341836
9.212145762758698
9.682091293501294
9.215274319126106
8.179029888134371
7.615664253191253
8.27365384573804
9.43439320881241
9.499859658532765
8.350486448825412
7.863250773197951
9.310393892564472
11.37879084086357
11.635903528858245
9.591789696021722
7.643059724158081
8.014946958082518
9.386287035922292
8.681388842414899
5.75409845130113
3.998467948493552
5.974625114325926
10.490585035677412
14.8160048623731
17.55358764001033
18.671481407744093
18.225352147856167
15.649397159884412
10.604246673319704
4.728938720251964
1.8624284192328004
4.9002001754757885
11.551084595285912
13.732200162227759
1.172879700920643
-32.92392407099133
-82.4826573901365
-117.25742279558155
-91.30369880261115
10.986769836633876
137.88007337842245
214.377273446734
220.27256017331402
184.89142129908663
129.61262736336005
63.727556295761715
5.658887614243937
-29.121056623350388
-42.57684196961701
-44.96727967737254
-43.09394913638387
-39.83563593144045
-37.44724130840664
-37.30721906302311
-38.50096647026521
-38.80170797565341
-37.16565679942882
-35.01704021366484
-34.36141402903258
-34.609609355227576
-32.849165131798955
-28.064184498723417
-22.857440938342762
-19.509655647423585
-16.816755005137708
-12.036949146038738
-4.315209372331412
4.550344749884923
12.363514512008445
19.027516079579147
26.40106875081726
35.19721331539186
42.35563334255033
43.200383921441755
36.56079304054512
25.959319722836266
15.172980437269002
4.876687654123232
-5.4522683112239285
-14.806720273377632
-21.107396451164394
-23.60187744915892
-24.071341978392137
-24.916351675249622
-26.391425402531116
-26.972855041832332
-26.310698532416
-26.07100362487146
-27.427136427047728
-29.395654200772352
-30.112348654795195
-28.997463051212705
-27.379459256900248
-26.602298581661564
-26.06417928758431
-24.335330781791367
-21.705237696895537
-20.10668127457733
-20.45652434455757
-21.150150856930157
-19.887053254808585
-16.74185942391486
-14.160447859233823
-13.641199121281296
-13.821208835225217
-12.65650700626039
-10.438994581038596
-9.082763867463637
-9.128321357017933
-8.976946472562652
-7.069126270381808
-4.258970919950347
-2.8200305866352293
-3.073926183980331
-2.933508374718185
-1.052007614401462
0.871642708025583
0.07686888827697813
-3.0923946162461586
-4.935782694527861
-2.981617020975944
0.6414138628247616
1.87639485196484
0.0348595785926713
-1.7281562590487496
-0.7754033072038687
1.8982665844008277
3.1353071764562204
1.6087875033288006
-0.513269514283035
-0.3312328194579781
1.711163571689546
2.2183436751557433
0.02345648293178404
-1.5835477520765613
0.8111491653350673
6.199565470232802
10.604585380693141
12.026921590940379
12.031516170098257
12.404400417702862
11.89579638270052
7.9588213468254105
1.497490689645998
-2.4237427664009523
0.01678229601743244
5.904719252180948
6.117126423049092
-9.096546419061397
-43.773417041282705
-88.26046366319942
-111.4142708171733
-73.07922098679214
30.90020393677385
141.68365505263938
192.21951514104305
180.24720253697674
145.0883379840683
102.83815218119281
51.64019226857286
3.3985344069099543
-27.088867008497147
-40.75400855228965
-46.27385656011967
-47.30230778425509
-44.17596411195875
-40.178868868986946
-39.75830721096105
-42.60657149884896
-43.671887342326464
-39.590248560507334
-33.005131841074544
-29.020873300077803
-28.580140177791026
-27.789517246156834
-23.749205986370377
-18.360032630773773
-14.864990947690742
-12.669305456187985
-7.966731312202257
1.222441899390964
12.501556676278245
22.157680927643135
29.491069647776627
36.46443517893578
43.78646000638615
48.973659511179
48.638732192822246
42.18153934027557
32.393195378853505
22.295202922279515
12.264284908698258
1.3890643299145153
-8.985811861930072
-15.605679619249553
-17.49235667353032
-17.534853743581632
-18.91743960438427
-21.413648684800194
-22.55553299405947
-21.39631987136348
-19.892853974215306
-20.523462639688866
-22.968540520423876
-24.40918935593993
-23.349788886935514
-21.645507103769155
-21.885801100203714
-23.73747595234402
-24.212383177307924
-21.60739161199483
-17.98872627014728
-16.43827789985512
-16.78528315515278
-15.998003199961001
-12.333652041020184
-7.778102502138205
-5.573758225919102
-5.938026632605571
-6.014854623710659
-3.7137261711713707
-0.26487970573682396
1.5258888423988894
1.353448493632126
1.9442470096357836
4.864179854256317
7.891610511721046
8.070000509532443
6.034044728737314
5.229533174974392
7.362900118484352
10.249062794980306
10.753018763204121
9.241306840335012
9.099694936517448
11.645952688023234
13.83750533618812
12.213893904766149
7.935884926053286
5.729711771128187
7.850996789906736
11.245048604643323
11.67961149310355
9.393852067371611
8.626709603779652
12.027314362920116
17.674665991683526
21.77575673800702
22.755267952866095
21.835558373057033
19.998735197495186
15.954146100871274
9.153656750337241
3.334008023811227
3.461068135516078
9.56030974308809
15.110244817450523
10.465085087589543
-12.630167129468173
-55.22093315824469
-100.07408973281719
-106.54670673769922
-38.45000571872221
84.9876551759902
189.02863959213857
221.07779536422441
196.81834931109256
150.1887958142388
91.74034174102388
30.67569818358615
-14.569486202649072
-36.79086723183264
-44.09622481243307
-45.26973464773169
-42.940917973063016
-38.07306985025235
-33.955308952173326
-33.72277486538416
-36.27709746685369
-37.42364676201735
-35.10077537289677
-31.76381701307944
-30.676067883570926
-31.37285608102872
-30.475350791111936
-26.21468810401799
-20.644945464833075
-16.644254357008208
-13.632624723750855
-8.262249935026912
0.8777092239225848
11.400909922999533
20.421349275262425
27.985875086860883
35.85210698172455
43.56907498411367
47.62811205590131
44.997575711776484
36.22513499780816
24.699682414318428
13.759930810695723
4.521184220675679
-3.689877564004471
-10.852195895886272
-15.347549404022937
-16.342590054334593
-15.791081310826133
-16.4590528981888
-18.702962184891877
-20.328654044949474
-19.461738512398057
-17.350916271899308
-17.139617178811683
-19.546663959912866
-21.85179291718778
-21.54972386467635
-19.484838173925233
-18.599771501614796
-20.074431944497796
-21.809905630312258
-20.82196867789815
-16.64600383675191
-12.015964388151321
-9.696808667694523
-9.372643079228093
-8.7164622260757
-6.721556868984796
-4.739659135347087
-4.23418618963963
-4.375680898802234
-3.0709407165548885
-0.20234495223227444
2.04160060759591
2.284559203171816
1.7590746449091912
2.5195013491434812
4.732686991743482
6.733694930461428
7.525973298662756
7.959402477563289
9.334933563416987
11.40130912067211
12.041015685816646
9.68054693796736
5.862026127335372
3.90470143407891
4.923936910371706
6.734572067069899
6.926933804307936
6.04468481596302
6.857059017542132
10.178882962017909
13.029230708134438
12.464722203799287
9.683344816684116
8.20848998964257
8.914412670236457
9.233426118771371
7.106709684753571
3.997542920945526
3.412314721601491
6.694980125513282
11.651250690121078
15.73065279784366
18.553536084365444
20.653640525918068
21.277014117915705
18.499304640128894
11.812810497445545
4.376499238783399
1.279829822621041
4.423780334463206
9.54961217253034
8.073337009004174
-9.01466472130571
-46.197179644933286
-93.2850087544248
-115.50923291585917
-70.2052064434849
43.17598961071738
161.10502786544623
217.02683087991673
207.55855173816886
165.29926929072855
106.95446948064465
42.589926151142734
-8.500523617734796
-35.48120485880275
-44.86215672553411
-46.92951428356565
-45.896351046612864
-42.553521162152826
-38.89400631162785
-37.82562085396496
-39.71526881893886
-41.339320370475406
-40.10285697932071
-37.70471031790244
-37.09286613113795
-37.56197101091144
-35.67826019879708
-30.290324801486452
-24.168279673626543
-20.10254466556203
-17.155485998047112
-12.252008078237822
-4.4627604758994135
4.1919072473384
11.90666703180248
19.330270255896057
28.03270910828373
37.52224478817928
44.45920365734946
44.73143235017434
37.10440660967224
25.00592470982452
13.108835484586987
2.8264329966398862
-6.965048807802206
-15.960327140876037
-21.632356558883835
-22.75548868530746
-21.788496597454756
-22.210625959823883
-24.407785347986128
-25.853713327283163
-25.061195388552193
-23.439353510692722
-22.92426255593967
-23.40987899767033
-23.443791380244182
-22.775070191720513
-22.68172411644454
-23.743245509760325
-24.73754267355645
-24.02796341479714
-21.634797459192935
-19.593853974841323
-19.680883910277135
-20.875349450835547
-20.30544723003327
-16.77655710543025
-11.535588773017743
