value
2.3948577700939175
-14.809550980110352
-22.083608008581827
-18.089192939354632
-10.418237999297006
-7.5363645684721785
-10.483126000075371
-13.752586703055151
-13.247830756465511
-10.656216652219769
-9.858676509440915
-11.065539764835332
-11.030222048924042
-8.359054907241932
-5.7829896244039505
-6.437260534669552
-9.24437175902629
-10.291176362943894
-8.23649313730112
-5.829051000230086
-5.794837571310901
-6.748325844575863
-5.180722379375702
-0.7202690944408248
2.901548158203864
2.1652514591637595
-1.9727638995811947
-5.3789810933413715
-5.700659871124793
-4.536380315107226
-4.905411219259235
-7.17859608799397
-8.710051557242512
-7.496699173242435
-4.757172358929033
-3.280843306063231
-3.5980220651345167
-3.5842480764869054
-1.9622013689634796
-0.17277659061468664
-0.13545267399407657
-1.251660144599422
-1.3664262742888544
-0.04728353658407625
0.6898737315622399
-1.204058176208928
-5.036446030992092
-7.814470570627037
-7.362937790921837
-4.43399476402198
-1.5756266066036186
0.42881198941761484
3.5477553288556276
9.273774637024639
15.643902011330058
18.53398079455524
16.389822372499015
11.901103391984815
8.291182095173998
5.777394867266334
2.547794930912385
-1.5134814715138052
-3.9963513042700565
-3.099976787698779
-0.2514977619693666
1.2277433007719845
0.3046962568863103
-0.5040852730521237
1.1358178178933762
3.6958475910879613
3.0943801661824475
-2.7672224053538264
-13.169182782833438
-28.09635780032311
-50.329157591792615
-81.98939983255717
-116.67016017394782
-136.36490410836456
-119.6866039952969
-55.81591798857072
44.46466123261595
145.96882850535872
201.45588976953675
183.0938351713929
110.48058947265801
39.821066265537134
18.719412359234212
50.65977619808465
100.18040250610936
126.74946647803631
113.59548333668931
72.33067559275453
27.24744593785375
-3.856519280302139
-17.846589400988464
-21.691723872184095
-22.861116925844684
-24.025758640973578
-24.341132586170858
-23.141112852310453
-21.733270760079087
-21.591185243507855
-22.345288594773272
-22.54080541057969
-21.679113414923012
-20.843941757719328
-21.011944202001455
-21.869666930686403
-22.553826692147762
-22.73268325819739
-22.805253370257432
-22.84525375494939
-22.160138664112804
-20.39913038174946
-18.566282399245132
-18.23082080687571
-19.417042347236578
-20.48138643706064
-20.04102021874076
-18.21735610019183
-16.101428904591824
-13.98220691181605
-11.084947955267884
-7.121660685791216
-3.1573652073812353
-0.671794397005713
0.37501764974094914
1.7452534599268137
5.1833067878302606
10.714146190220115
16.51373997878966
21.093866869834756
24.86598870709918
29.09351789528923
34.02674468418873
38.53157011572888
41.81647710052392
44.52144397220709
47.690510008827374
51.136151363922735
53.480363873267244
54.3400597917266
54.82374283375302
55.32301300605914
54.33943372204791
50.23607856200329
43.60588145294616
36.44646073604824
29.495764049186363
21.760166009430375
12.561874699098174
3.2996372911807046
-3.8504605680020614
-8.266903775513939
-11.09991796652023
-13.785826397097733
-16.69741843081742
-19.553347468034797
-22.252852082362985
-24.85347017873316
-27.315880685213962
-29.062839844880223
-29.355968013510125
-28.170408713808655
-26.26231334080493
-24.573300243589614
-23.526436276329107
-23.22254599000695
-23.88174078508085
-25.691166563476127
-28.27236276914611
-30.113848200907842
-29.657207620353645
-27.180492820933836
-24.781949586685133
-24.342956878490412
-25.667745216528857
-27.18237673144452
-27.645324410274092
-26.711561351156647
-24.795853618211922
-22.61797426629284
-21.103954507508934
-21.21030817133768
-23.1765612160809
-25.960179762177656
-27.542927810860114
-26.69863365739805
-24.16522403607925
-21.656890942308344
-20.218632850077416
-19.279788267922964
-17.356641270555595
-13.734176301485881
-9.657018472127412
-7.477555842180985
-7.825393264534373
-8.890640163217515
-8.84846550723565
-7.731610791833173
-6.5345198660701
-5.356953165674245
-3.823088805424397
-2.362250810149606
-1.7309895450616657
-1.7736274271390422
-1.2992734011514249
0.4055617271826352
2.665495590030334
4.389019701767878
5.394494100176044
6.430825264465085
7.68815205029424
8.416226588295302
8.199323069889505
7.641317087264786
7.955215742425814
9.718332362339643
12.120168149550913
13.729175982552954
13.996975977113156
13.790991120021374
13.879160655561883
13.754268487276816
12.52042373716163
10.7510106291996
10.948644801671517
14.452872611107898
18.709819408447633
19.698683343838358
16.783578156626405
13.73433898531644
14.325136067140779
18.36577070396186
22.552050011981155
24.13103849949328
23.14716847236395
21.098029464897497
18.970063245852455
17.143477083503768
16.311508071865823
17.689971606381004
21.173457081167253
24.2729086680414
24.2640735042053
21.217631570112424
18.289247614613153
18.10260899234344
19.756177336714174
20.362871547535804
19.000541210024902
18.227581187633817
20.58487205436936
24.646689079689875
26.266258624922628
23.7185204369197
20.061309622208384
18.954947135004392
19.97013121316152
19.958537379449435
18.175215730165633
17.843123626308273
21.290420403240688
25.782012854037884
26.388382689324516
22.22626769778722
17.92761080398452
17.842732381897072
20.821740507702646
22.389568278089335
20.964775894646145
19.988605219640046
22.82481643015654
27.631280715493375
29.368333816413784
26.181518788622814
21.90004339990103
21.12518603743473
23.644319447647476
25.310380855429244
23.50755652768683
19.26201511049323
13.102997848230734
4.91648228368532
-0.14301524501691476
2.992073214615735
6.829481386836507
-0.7899860704239243
-16.520010202411587
-24.396033014171195
-19.285779901529764
-13.506549094234774
-16.584914048937094
-21.97046480338858
-20.975369128014574
-17.029992454407093
-16.668581980571737
-17.02925632410752
-12.009306520822228
-4.261697307336419
-3.1180883096872525
-12.552923965459648
-26.837797016017223
-37.460865472874026
-40.005983983114106
-36.24460548372265
-32.34997530794262
-32.9431888361975
-36.346160472643234
-37.43794308023378
-34.685835334682714
-32.01920377668661
-33.18311079772289
-36.50785865599129
-37.31300390218695
-34.4797852563275
-31.984388383955963
-33.3041529331435
-36.56221647788223
-37.184117981973294
-34.31016852407853
-31.98321569385037
-33.47187439977263
-36.69184659548526
-37.132870034231544
-34.185468049373746
-32.0018706334268
-33.67656245976575
-36.89433908436696
-37.15945791481377
-34.106076553803085
-32.041658863283224
-33.92071351399741
-37.17163883216835
-37.263640202253846
-34.070414289629596
-32.102104801843964
-34.20586398462061
-37.52542523538754
-37.444988290253605
-34.07629396189831
-32.181825801633465
-34.53284809112346
-37.95706420572159
-37.702769235301474
-34.120832446005906
-32.27850548432698
-34.90184271478195
-38.467710592394816
-38.036045928478
-34.20039646851225
-32.388415412470664
-35.311281034150575
-39.057210216082666
-38.44493614750035
-34.31817987833316
-32.52155985603029
-35.76857936559656
-39.69413135348244
-38.810621444970415
-34.283653982423665
-32.6345836099354
-36.88294368030398
-42.13203729434398
-41.397951532143075
-33.327171399203685
-22.017592056185887
-12.084813495912439
-6.88706721181544
-7.819282582421902
-11.784668686656492
-12.938028654584263
-9.185738179932752
-4.627007930750603
-4.491660571469264
-8.507992793239634
-11.537144548211424
-10.88378015990788
-9.639584161831063
-11.826988868964431
-16.3871800163724
-18.688356551025894
-17.29607037908397
-15.615711877869408
-16.628617826941397
-18.344934406751516
-16.38109962493216
-10.308295969719289
-4.634547581060997
-3.4862943067773906
-6.046659068453601
-8.3036746924878
-8.25299375217577
-7.375321515429391
-7.672630012062823
-8.653056701328328
-8.155936366165221
-5.6843925899536
-3.1394121634786
-2.3830160387928476
-2.8852539044792103
-2.5985888043298084
-0.9945290359896846
0.3152898306311025
0.11896102483484938
-0.03294935910472674
2.416965399267724
7.04087218113706
10.506077220588836
10.45087414338536
8.063399157381316
6.405536483770949
6.8033281812174256
7.966044930298432
8.121370379175897
7.400942879644824
7.403068592864666
8.593101221148899
9.652947596466202
9.29357678188832
8.059348843988134
7.6130332701422
8.381820412985721
9.101093158409668
8.545772127663987
7.287281182101623
6.947996119170641
7.912178267301721
9.069114941840946
9.350124840068665
9.123547869969864
9.763121661052963
11.706150309084702
13.85235358494495
14.983428031501798
15.356253682221354
16.023215754212536
16.941422065223687
17.037680496419302
15.68437022272813
13.81907748735414
13.212145496934847
14.405491447683143
15.987428606715131
15.856223926570799
13.563584622298062
10.905436486720578
9.742387461195177
10.165850233395068
10.876095095814508
11.172169504228307
11.708840549679692
13.106559420769987
14.892901151858949
15.802324424893696
15.220927859095493
13.910672241989477
12.976653045931316
12.763218183627004
12.718413299844844
12.391233012702532
11.959568085657626
11.611021614725798
11.207439183989475
10.625521720378039
10.516022585447985
11.708951929685401
13.807453644510783
15.630766865059138
16.436323545735252
16.633591180721144
17.467633949998604
19.57547509478933
21.815768946269795
21.78054136007256
18.538234206285786
14.189040082600489
11.743965706935057
12.220965464744095
14.043571317055477
15.182907058439094
14.913691197736359
13.569603754315887
11.930638219685612
10.543856132980927
9.586426979355592
9.312533414769643
10.332154922385955
13.210608399988454
17.193091763969633
20.431465590171836
21.994808839557862
22.90750748529095
24.788033271944677
27.299645456039315
28.149362859804047
25.80661249549597
21.344661127101407
17.455363055374036
15.797888586819221
16.04052455426372
16.978905883099937
17.81863896139345
18.302734936214023
17.808257742703404
15.834003758183243
13.118554927650619
11.258991194966658
11.28009122307237
12.14214572674764
11.280309383748094
6.785230945183068
-1.7661299892922115
-14.968313822805559
-35.291839763582516
-64.01849595487357
-94.71338365726274
-111.00313735285185
-93.03293014987992
-29.442964490161877
71.09965689007059
174.29063373227171
231.56421278144865
212.90947363693377
135.81187959996592
55.82343854396224
22.291356425502205
42.575326437273795
85.95874739066876
114.64023243051115
110.04261588145728
77.70113700335459
36.125242446937996
2.304850711164102
-16.956238336770166
-23.83456082082528
-23.21557146288691
-18.66133008387761
-12.552590887569762
-7.78751978288815
-6.8406117402301865
-9.350910780335287
-12.35905152217769
-13.210418137197886
-11.985088616337123
-10.750939142430827
-11.153764688032641
-12.797905711457545
-13.594016858242705
-12.287094353937379
-10.00058055904472
-8.953763954482387
-9.96157086688357
-11.595235494230536
-12.249736487318298
-11.717188571385101
-10.430337701683301
-8.380968423004566
-5.477584416353223
-2.6152887333986508
-1.037504761986666
-0.9668796550622032
-1.312641830845234
-0.5890895786248689
1.3947928422624103
3.5846829942376686
5.380025998226236
7.491293055557106
11.199814781699628
16.749225259963342
22.98175557061851
28.54419589929338
33.18772251671202
37.61382705362852
42.006831752289756
45.82702510547368
48.727479195307254
51.21676130546438
54.383323517374215
58.289985448185135
61.45721969734187
62.271348213747316
60.48177954857279
57.260604576623976
53.80627868704928
50.60990618554993
47.54488721339774
44.05256397996125
39.52212986571275
33.58174989487593
26.643495029738006
19.832749578123593
14.028719531934255
9.126254569513412
4.276827406584025
-0.7928649914209003
-5.621180286179701
-9.884528259731269
-13.323064216392055
-15.5816284023568
-16.474066027550286
-16.3747019280639
-15.940342021619777
-15.424575515748536
-14.914646483474584
-14.57077781432832
-14.6130182719123
-15.272812432461738
-16.517961170389974
-18.06440044266099
-19.397713715869333
-20.035661453453894
-19.793727900007173
-18.89113156708214
-18.238444708290157
-18.7736780650757
-20.481195838720392
-22.305911031454475
-23.06841655201766
-22.72013764017411
-22.058967692032304
-21.654628319305296
-21.43895207773254
-21.011361984765454
-20.289027981094677
-19.342213833086685
-18.23867862142861
-17.23895181142462
-16.423345419684512
-15.38438953002823
-13.553392309279758
-11.226362336344899
-9.752401590122924
-10.307638103823797
-12.685364529129092
-14.797439162815785
-14.246625303921336
-10.644872183155965
-5.767295229501336
-1.9567515076595308
-0.2959291796612713
-0.3175980130095568
-1.1255470528722196
-2.194781332778663
-3.2186680323314567
-3.5158119281234153
-2.4977418079966784
-0.23671495644588125
2.7341948235947164
5.41897188394122
7.084045031518925
8.061746618324387
9.053170406714875
9.729995153209522
8.705737394436737
5.636420025727429
2.287104131428588
0.953747297440364
2.3642368207519713
5.113686012160466
7.207235490914468
7.623993207841362
6.765827914485598
5.967142730741426
6.072392135207024
6.738940796595518
7.035913106115758
6.477248083326321
5.2208217019215075
3.290981250186759
0.6787914389683252
-2.0160004819580237
-3.602261059323695
-3.242743450775137
-1.4472615264308013
0.6124686664431789
2.086161631946318
2.598085010340502
2.311009643305379
1.7080418098425756
1.1278336441769339
0.35618821334951667
-0.7216709209960368
-1.2927024700313927
-0.5213187006304587
1.3603817692593554
3.1955566327161047
3.8981993415480716
3.175203069960083
1.5247527431188637
-0.0006335146015099546
-0.7830072118031423
-1.1487878046349056
-1.6062375630848296
-2.264608629602531
-2.7297572492423896
-2.56491468839834
-1.6987312965100265
-0.6427937688102735
-0.5607158845888311
-1.959357355402295
-3.587438756866328
-3.516333558519558
-1.510457256943504
0.25602494825794286
-0.2990230306882984
-2.989782740979943
-5.882530523457189
-7.211751738205541
-6.8329655062797485
-5.758224591594806
-4.90871345355268
-4.462379686985329
-4.269138453938269
-4.536766607712497
-5.238077809305516
-5.5849950757714355
-4.396572315062556
-1.0890802632397838
3.2011019903071936
6.460354841082625
7.769145976873702
7.702447101323282
6.849026403675856
4.927395288000916
2.0563507204082394
-0.6248638454419397
-2.1557970232572865
-2.963598526586458
-4.633416098030697
-7.939912607183823
-11.61966325260555
-13.558548596879668
-13.29474100713724
-12.759659148400702
-13.561402772267757
-14.721110229985992
-13.910320408139896
-10.587348117568865
-7.5229215083677365
-8.774502238532772
-16.93177506400606
-32.70278187014284
-56.471137081869145
-87.75452789440355
-120.31939353736013
-139.17321190569248
-125.33960492845426
-66.94126639982228
29.04843344115202
131.13351781916333
192.50192518529275
180.92488549889853
109.11254981032539
29.46911711298554
-7.4461264283114
9.735643605768338
53.22631345424298
85.20968045785288
84.66537807638672
54.701458443229
13.505271459269146
-20.511635099741962
-39.26895385118242
-45.3577491570506
-45.03451360185234
-43.00849510836223
-41.74847271067732
-42.32266500439305
-44.864694797505585
-47.96636733224781
-49.061147449894236
-46.76005546794926
-42.806113781878594
-40.843685064569335
-42.4417341883047
-45.66915237406161
-47.7680661268322
-47.95736613118559
-47.37701328326955
-46.850580967083914
-46.16005420884962
-45.23743185859298
-44.75367643938052
-45.21895378125276
-45.740406623402166
-44.75924918551051
-41.79925862697441
-38.04220072535304
-35.39383866419582
-34.49207423383131
-34.10669394334107
-32.529436848672994
-29.09107812374463
-24.495289226943875
-19.70868486246598
-15.101402723544417
-10.65944995201726
-6.634090762463098
-3.4907964881648907
-0.8105151803711026
2.861242774850941
8.628401080403734
15.595226636552667
21.167103478740792
23.872423668023696
24.877396516972343
26.444525514514233
29.509593896387187
32.900299783117234
34.8972700531451
34.99398929814162
34.1379714792251
33.17885504098218
31.476847193290087
27.590732646627206
20.522447026880645
10.765857445362855
0.6163187711400631
-7.333016877962507
-12.240334264736845
-15.598159333885656
-19.66149803910986
-25.77685627793174
-33.62222679769214
-40.966893074366325
-45.294023947640255
-45.74414080717319
-43.27970239832801
-39.898811286585314
-37.642230039500134
-37.80774243271755
-40.18925701042521
-43.23074245289595
-45.31352531972305
-45.58605721902893
-44.368815190282504
-42.70163905711018
-41.252814350299786
-40.19272305440219
-39.75318532205926
-40.28123377183687
-41.39110846408594
-41.91222291498755
-41.102530975385235
-39.328968309372456
-37.756920069454544
-37.10791563200015
-36.80028883381192
-35.74602690631418
-33.79136040170546
-32.033490629295095
-31.180782580836343
-30.6694517342088
-29.92814617360598
-29.055324799523625
-28.210307747976266
-27.244089873456947
-26.342710714832414
-26.123817458353503
-26.464319459669955
-26.287175056780278
-24.654389001136874
-22.095491388742612
-20.593210218379504
-21.561534660122554
-24.33801198322335
-26.543825134586424
-25.958367983577144
-22.33713159365351
-17.277248404339876
-12.744590568406968
-9.711432508699003
-8.223440738597143
-8.144740304221106
-9.156926179086373
-10.603528152911904
-11.44278163188132
-10.92497555133166
-9.344407703795062
-7.558373948638551
-6.328854319117043
-5.938301203002573
-6.27906140979705
-7.007627958427304
-7.292528106271782
-6.282700103887264
-3.7427158841337205
-0.30885276426586117
2.6503259383376943
4.0168523556957165
3.8118092768475855
3.07738020386679
2.7716128696970674
3.3880879453240893
5.453610751115944
8.896339826348239
12.483464992940624
14.609503510300138
14.790607094567749
14.28809417674398
14.452323697469184
15.175499568270311
15.489730786178232
15.089696624769115
14.610321300236809
14.360704497190296
13.896022919027995
12.571357529512968
10.231523604340243
7.820020587150383
6.8628624900279895
8.394020158632449
12.04813284898194
16.04226360104278
18.55065356738051
19.049785027619567
18.443289993191907
17.730596541873176
17.11096966150082
16.51801469342328
15.930233981273428
15.461605685335392
15.288552614959476
15.486479422501612
16.093420515991774
16.894709664782813
17.57164126103127
17.956811243563582
18.184928152868693
18.770649320530502
19.89891108181672
21.1929489044186
22.28492410431029
23.303160458641145
24.66064258828071
26.06842325518903
26.54269858129458
25.258700331929113
22.399569721626595
19.669202429047626
19.15532590234685
21.37197805725394
24.433599301603913
25.772114759634874
24.85281346875504
23.231628171507197
22.480576453152388
22.764302595148518
23.51468022221471
24.662766757668976
26.25247114713837
27.836641124517808
28.610211466019564
28.013047494060572
26.35388940103764
24.529190295603264
23.189636161278155
21.987950097890018
20.26980580214005
18.55318491317584
18.177142524418166
19.79061176030914
22.31205455882972
23.655245109250558
22.787398922242133
20.51256927942601
18.524528785840104
17.792381251404954
18.058432761758795
18.56555434728669
18.44274107034899
17.134931587460127
14.77485360625219
12.217613062030708
10.535187356091491
9.94773294904801
9.830212715161538
9.656706296525952
9.992206283775229
12.332863025688706
17.17353363634414
22.92219139683253
26.906714806943224
27.57325787813429
25.55560584709268
22.291576637968078
18.89514764386204
16.209005256565057
15.0296775587105
15.94695591745373
18.558484027987898
21.173608551891306
21.55040882373229
19.056803421423368
16.111507580813814
15.792533486471106
18.318709076106977
20.450544786797515
18.24497067800891
9.88825783154969
-4.6336447536546945
-25.76198441947255
-54.74897707178134
-88.63961281173287
-114.08316523457374
-110.23717452305624
-61.366947488808314
29.606131832868094
134.66492970399526
208.15378047039442
213.90969665823152
157.9399355047667
89.247596414493
58.996164656636104
79.09581650723753
120.45211795146184
144.34429390734925
131.68064994578236
90.23336134514103
42.663535776599204
8.015269688577728
-8.511126978626152
-12.922980563317514
-13.348059813952677
-13.548878813699943
-13.438158704486128
-12.86242575336617
-13.509735859369517
-16.904099994295176
-21.58738689906803
-24.170543569348645
-22.89799109508988
-19.42337294855708
-16.671408551913807
-15.66102845913857
-15.323012088606893
-14.500005323687255
-13.76691499288
-14.850427326798865
-18.204541967853174
-22.176739799212392
-24.424397716055005
-23.932517190927342
-21.304274158413225
-17.724826992503857
-14.625902682174615
-13.290212419036035
-14.21791531855861
-16.531369071047628
-18.09704283993336
-17.216915345326687
-14.079622077654449
-10.398344507080218
-7.293855763710736
-4.004777899736231
0.6380821069929312
6.4351593765790875
11.737100791304375
15.22686767422097
17.469384763231997
20.067534385032268
23.944676060280763
28.43811620352083
32.164396870513826
34.51194627401036
35.80115357265134
36.81815504118075
38.186359958007756
40.28294527894084
43.44944582486993
47.21868654367769
49.7668895574668
48.71689458832833
43.09061306461917
34.34152988589723
25.050423467412653
17.08414588242415
10.628991086749437
4.8642422528499605
-0.7439822012978863
-6.050147172951263
-10.439998560234997
-13.85818196173466
-17.117450734554573
-20.63423252912564
-23.796909050492296
-25.790757750637137
-26.703712762523203
-26.9958176437466
-26.525067924762673
-25.26976195985166
-24.16375958987435
-24.754350195253224
-27.74125916223976
-31.883073230021513
-34.733140625493526
-34.47297265847776
-31.635126514063515
-28.528973918594584
-26.97634361225399
-27.310300723033897
-28.7881860185218
-30.54673802013436
-31.82803873064573
-31.91540033230035
-30.829006125988627
-29.53319449433509
-29.344393361449274
-30.694681858701124
-32.578875274442254
-33.743661670135715
-33.78537920932959
-33.2804379474885
-32.8433163530723
-32.2844061673329
-31.133093950102538
-29.30715098288134
-27.297859983419624
-25.563134481779166
-24.01708538350542
-22.549848024584982
-21.305458750500428
-20.59062954485655
-20.5673343759673
-21.10015736864462
-21.891835172171774
-22.187853402608162
-21.159773307723
-18.83318454852537
-16.24094073896051
-14.600550083492752
-14.337102675897274
-15.327492996206374
-17.151756493181736
-18.867350942871877
-19.34064681769522
-17.666018875784765
-13.815568708092005
-8.843441982997843
-4.302891828715927
-1.5704724405570107
-1.0689594792915074
-2.2395063741570382
-4.0204344276879125
-5.412395282733828
-5.893074384173994
-5.090050164225757
-2.9896311413540917
-0.3266944029747043
1.8327387831384052
2.6887063600569405
2.135246380912258
0.5617404651315037
-1.4031924863459535
-3.157965517273279
-4.567536339512318
-5.741447935952182
-6.701486400031795
-7.190913871854001
-6.731993686596431
-4.937915117492445
-1.7508205204011837
1.91659962914718
4.296891069400908
4.027221502689146
1.2688756619933694
-1.869361205907771
-2.4829319241453303
0.8319616008662167
6.433182352071216
10.895086961624614
12.265380753577377
11.17852195316691
9.36810227266093
7.957753919606161
6.964175379754255
6.006753308654552
4.799124674127102
3.4691030337342452
2.4880407216408624
2.129556647546981
2.4111767487261746
2.9429283491289593
3.064488611232633
2.551469288815711
2.0413835275190113
2.4773541801117167
3.602750020611816
4.103778655472153
3.354791018949636
1.9150091733685328
0.5498767730806845
-0.8223821084487009
-2.5081182573562657
-3.6483024048684554
-2.6083362307912386
1.0158370511207078
5.30775261751851
7.824399795170009
7.791694764107824
6.138439731982307
4.289411620249885
3.019386357053788
2.543804966497838
2.8829231267635125
3.6307210367735863
4.101111336782141
3.7322382211550567
2.611406823516149
1.403534570929412
0.6739633484423355
0.551536770754273
0.45832131306478224
-0.4610532600216171
-2.3378765388309732
-3.9759852197012115
-3.4513756023026234
-0.3727019976291236
3.083656141645143
3.9370625606823872
0.9993428929888524
-4.050990332974772
-8.342188384827407
-9.799383626572741
-7.473285905323872
-1.333332839276881
7.088178756650033
14.178176405984946
16.613376167315323
14.323659840245025
10.028987380354033
6.37650094258697
3.8568091620194647
1.5946609118485235
-0.7676858606356747
-2.4451150074328476
-2.257516008235687
-0.2674801807288128
1.864015402812209
2.406478317327008
1.3489098296962787
0.5251167510168431
1.186057320054465
2.1424187472866616
0.5357722070947868
-6.367504533591763
-20.61091702502889
-44.36689048526728
-77.8840528233479
-113.78538305318706
-134.7609415648831
-120.38629608353973
-59.86316526918193
36.889375235326334
135.44501777402917
189.8019390541528
174.6428715444665
110.91050154554411
52.36823967443358
40.79969695862069
74.46172988405364
117.33556085196996
132.84068709916238
109.76719212144346
63.44297444534162
18.433733590602174
-9.7019981362896
-20.847197480266043
-23.681676504495293
-25.461393128517507
-27.11894796180975
-25.728104002722866
-20.651146010251995
-15.434099113820754
-13.834098940526193
-16.02470838024442
-19.22702176510416
-21.356989429533836
-22.660422575883597
-24.135773991549087
-25.684712602213896
-26.297936987352692
-25.86818200550825
-25.596293957059128
-26.466062941704397
-27.725178376574554
-27.519046884500266
-25.58127161048823
-23.69334612808595
-23.350067688218726
-24.243417174969984
-24.980065147820284
-24.7729383745599
-23.715677267077133
-21.96788927836112
-19.310245962425284
-15.489251766590847
-11.260181186568678
-8.266656869536586
-7.529877866515699
-8.192591429521
-7.941726520808051
-5.126376327012327
0.020555925954732712
5.9828718493945585
11.439492099575016
16.138520121426232
20.194263591861784
23.616077992805316
26.527538464254178
29.276770745761535
32.18488152756676
35.0033887198348
37.40514542860566
39.509234090098374
41.25045559839272
41.87283117634814
40.2591083922771
35.93523660022202
29.549816004726623
22.586661209745326
16.443326747496837
11.128571273694956
5.724695897807871
-0.23008867292806157
-6.392656112752645
-11.98588264328958
-16.546816976168998
-20.186965500779415
-23.360273334123722
-26.358941941029247
-29.13928940024747
-31.99022231844829
-35.23770876349357
-38.37486094480039
-40.20948217212028
-39.915105664825404
-37.9457913766561
-35.439048927600254
-33.463382451622635
-32.785221088281865
-33.351296690658494
-34.36341963855446
-34.899198413207515
-34.603005106555784
-33.78033255291141
-32.90201235739943
-32.413165258729705
-32.39019133537961
-32.57389306229533
-32.83569028383824
-33.25170086406342
-33.97685661835496
-34.75762524733622
-34.86293131776951
-33.616855429497626
-30.959241617322405
-27.720639481998823
-24.795003276044216
-22.58341499419162
-21.312811319177456
-21.08762805483877
-21.74585756652835
-22.573219717305346
-22.593493223657894
-21.32539493955937
-19.125387210212537
-16.84490014819359
-14.914325437511959
-13.429252414910776
-12.492536627556921
-11.639178152960913
-10.001507787429883
-7.322192082830541
-4.505803676644702
-2.6820946555322793
-1.9786055806769332
-1.6658493541226913
-0.8234259955642984
0.7275470167616673
2.3584198792233413
3.7666524562995685
4.986440227811329
5.671069901067989
5.188551511738266
3.6526132784810605
2.3562686837507427
2.461200084152416
3.8145374426915453
5.1843354026154165
5.762311787543695
6.022583265055609
6.524018903942472
6.9351444999813525
6.415288140051729
4.915042479055228
4.026831364937399
5.603667803112179
9.54693199450535
13.433199580694614
14.93201774112576
13.801106682088115
11.030984683020588
7.9119861581581326
5.764787267899521
5.357257110303411
6.402241150839238
7.788299587397901
8.940135167916406
10.273277064331422
12.112449715933758
13.92398619853067
14.628067375114703
13.744199674721555
11.906068879306773
10.244055617513377
9.319602258312166
8.767615524476938
8.2575158242275
7.816117996045133
7.47094240254435
7.246010329553266
7.157758279530914
7.67318502406541
9.599461608490556
12.844055195452311
15.723193781721507
16.004808343541235
13.02498610294871
8.34107833494713
4.596074724049728
3.82338312060903
5.9521075415498235
8.972306515437186
10.53785516391019
9.70504357095276
7.349715923946449
4.8517180572062255
2.7871726642424353
0.8672112644794091
-0.5115311613307179
0.39364957619424024
4.558892889411558
10.698507273308255
16.444193117778074
20.512878010218735
23.179492876308093
24.78499247143458
24.985704080684126
23.322709080880404
20.135838600253205
16.607605991510518
13.63002079517159
11.244060893883802
9.098249111623527
7.379992652134153
6.860282492531998
7.606120157940432
8.483482948977187
7.944674376049523
5.431654751359924
2.186040255498988
0.2392327615241408
0.5240762186038452
1.6049983266760277
0.3421746514579877
-6.629975272548462
-22.373131147318585
-48.596631675864906
-82.5437896763566
-113.19284470044082
-121.92132259902168
-90.33221343141818
-12.159083163528763
95.06030499595035
188.2683322400619
219.42897744667488
172.13213825267113
80.75892971624708
6.233453831607372
-10.598555965384111
25.777282353762665
78.28905566271354
109.05502914270977
102.23016710204492
66.97087929579641
25.33979450679703
-4.292398293161847
-16.64390074150405
-17.297618630112865
-14.167888166334382
-11.701427715836584
-10.993103984275042
-11.952260844661263
-14.452823834696025
-17.78734538925625
-20.298264335878134
-20.623236865887186
-18.957389823696317
-17.153903115372827
-17.064358810134625
-18.6201968998846
-20.1558063662794
-20.482406842819238
-20.124661181292055
-19.919439808321123
-19.566900518451256
-18.362671344164486
-16.39497300846991
-14.814441622720484
-14.420725346286101
-14.530443292233869
-14.083199376252928
-12.963688359451925
-12.161694749795657
-12.68333807693843
-14.315741071747954
-15.449725867976278
-14.045693785768417
-9.641699696317957
-3.944000310177441
0.8558318754865024
3.7389100602140415
5.344274090929517
7.182479160523048
10.611692300242845
16.155196752450525
23.075914445599576
29.65306974964677
34.236668228251744
36.62300188581384
37.83836927032991
38.5324736194229
38.549329705224395
37.737058649170606
36.84038054718771
36.9290571877501
37.6879412192088
37.22746582854444
33.74767979683936
27.36535681913539
19.805201514164857
12.486041600703901
5.944941371208097
0.2766465453103807
-4.764910316185753
-9.97137172837905
-16.197858711725488
-23.082930186077835
-28.830210722818208
-31.52756649404139
-31.03400144538152
-29.170954884033357
-27.828195446326298
-28.021484426048374
-29.821814545341727
-32.179363358791086
-33.60065860995928
-33.5857583021039
-33.39636797773416
-34.521299676073056
-36.84129789240754
-39.056768492440675
-40.065285461919736
-39.579631058046736
-37.75515773463941
-35.11083333958426
-32.70435228348704
-31.50353618222197
-31.80665238172614
-33.1058902616241
-34.56094622696148
-35.712658456398906
-36.64049078002133
-37.80546816074971
-39.29068755055373
-40.17015328537851
-38.902058265883085
-34.760899261212295
-29.287815252043764
-25.00268769286795
-22.8002031266419
-21.627023318566508
-19.988420592640036
-17.389179741297845
-14.61339857149665
-13.135803280674551
-13.768467913806195
-15.49962369881105
-16.534934942318518
-15.973370208382425
-14.142984155835563
-11.830237501376093
-9.576568166189924
-7.922948006754762
-7.284714629070901
-7.502043044340339
-7.9586145173142455
-7.917269352972034
-6.991812457749413
-5.274533126563519
-3.3998238425897114
-2.2028925219349507
-1.6938220822524137
-1.1546962590692893
-0.06040149533994543
1.661233126668243
4.066477333500318
7.193940693434156
10.252547713037737
11.835899990870026
11.084495383848807
8.486629537436098
5.649383142315711
3.871521260435423
3.3852213078043043
3.8139400178185614
4.8554598295417595
6.300920981997326
7.467655308051352
7.8401709658728755
7.859835706563212
8.327696703014627
9.570098431523098
11.108578815187283
12.11889131584702
12.196737115699278
12.004413776357937
12.858300595312354
14.923314075495844
16.79737190585584
16.88847347256256
14.705925649378738
11.294252587026222
8.325228650144139
6.693035294539082
5.922006395823182
5.259066967799843
4.986584430479342
5.925787701294099
8.511436501252671
12.491454743591149
17.440779814353306
23.305834441550875
29.586594297520676
34.88177512469032
37.42537994371475
35.75428705492373
29.90436130532309
22.182812171815506
15.927050290081443
12.918162576687104
12.68335375338299
13.839022264481516
14.87674354808086
14.922987201139726
14.401669890859171
14.502856341717832
15.868092304554432
17.57568892182305
17.839574161444563
15.316668528663696
9.365895907910556
-0.8483360687609278
-17.556517961117557
-43.40915572578014
-77.27098477394144
-109.0410716663317
-119.57108719911281
-89.33626180195004
-11.231209957011831
98.03415780944697
195.78990661819492
232.50098636872985
187.810478105114
91.76887809662546
4.671304362681672
-27.185384606243467
0.4626418140083821
55.90580649687698
99.18925636150685
107.3715386194058
83.13390059602762
46.28971128268941
16.406441231613403
0.8227636743939464
-4.577496426531857
-6.82716451207642
-9.189933284781073
-11.140718011432476
-11.551840573835403
-10.73803955615588
-9.864927991674387
-9.39654174376606
-9.049465356325985
-8.606238293923548
-8.552481225480474
-9.613346226962568
-11.75561791180065
-14.361395306127228
-16.72858095045609
-18.256858630193044
-18.27786045879145
-16.161544574858787
-12.301776448486361
-8.340608656607532
-6.144959646473923
-6.31756444537021
-7.824047693717786
-9.26756066348662
-9.632096473497139
-8.31264599377656
-5.064554766411046
-0.2281820978072724
4.656798457555723
7.5754227931368465
7.872250998001782
7.3510040187011425
8.986517264667809
13.925163642355182
20.538576764242737
26.32341394828059
30.417883988710937
34.09914819929866
38.847047174842594
44.686756065366325
50.03590771639208
53.266386401340164
54.47445565895308
55.159561830316406
56.70560845584456
59.08775807943027
61.01511317285725
61.09271755054049
58.45534239748268
53.114299297877594
45.86053861268471
38.013477080649565
30.891779869131284
24.667504445797533
18.42750036571552
11.538931864085578
4.461868216134125
-2.308872844534065
-9.382880040357085
-17.04693783820039
-23.784066786280277
-27.197570421036303
-26.301075027511782
-22.95236572233118
-20.561180636562092
-21.53446070961185
-25.698032139397373
-30.75768582510835
-34.23479481280242
-35.15117986180146
-34.77467016863609
-35.10943942750155
-36.55981591890568
-38.07645136236757
-38.866616058597764
-39.37281711325726
-40.30739901104994
-41.23381651788505
-41.03432602289644
-39.234824192886684
-36.43264720595259
-33.466425340560725
-30.96799207602487
-29.726938755810032
-30.25227466157901
-32.2173532623554
-34.44092478468381
-35.57970898412923
-35.080468583674694
-33.03417126839239
-30.02134901579171
-27.159713387765205
-25.551919029542717
-25.56645355132648
-26.485527320027337
-27.306242041858205
-27.473949642602257
-26.599137413159006
-24.28102028622446
-20.568072624200617
-16.772176197626905
-14.836326835789553
-15.363279224456898
-16.85048645112829
-17.06356252276228
-15.380609136821448
-13.212577637134162
-12.33187981268747
-13.15187992173259
-14.175299124161858
-13.802692781616912
-12.101403133052557
-10.193497713323088
-8.941065172943052
-8.413761797806513
-8.260384913416697
-8.041779548688371
-7.614789250503345
-7.476685651751603
-7.914325906731715
-8.308230036111679
-7.844867618429835
-6.714014864616087
-5.882462229110806
-5.580428967749214
-5.140885447210238
-3.972938516077677
-2.3938353911546395
-1.5525168087907049
-1.981205843161757
-2.931127423717663
-3.2829869914066947
-2.73127730861248
-1.8422766096356442
-1.0476025985377508
-0.5044278859391429
-0.301375378903587
-0.43891232895478594
-0.9596757198273518
-1.8420933923552982
-3.2769094601257924
-5.652469832390151
-8.670542258272041
-10.521775920887045
-8.710344511609689
-2.867080383451193
4.607684412381068
11.064515969032211
15.393918140519544
17.865740335883068
19.13009998412704
19.699592713791542
19.5640024649123
18.123656054032832
15.303124781051594
11.88659386158761
8.76327523733795
6.367403384981303
4.543650606729898
2.980328317876228
1.6009543659066943
0.6522232781459228
0.29455647788653894
0.4971964828723751
1.50500056459608
3.0696025013499186
3.716883187272443
1.6569074461208897
-3.805589884462956
-12.18999731738693
-24.178882418928122
-43.111341833167046
-71.5987203508411
-104.35039788954012
-124.4769868824268
-109.99473578658605
-47.33169380383144
55.24723384931593
161.7063103355387
221.26584404718
202.24197070904216
121.4047370407821
34.827280870001985
-5.792396374844595
10.837436958847846
56.51100057242142
92.14901595838352
94.97614727759019
66.94422733372099
26.58290772528956
-6.655735611429795
-23.99239450571094
-27.973451738996122
-25.690536794477886
-22.3854762715639
-19.99147904995171
-18.68759720053745
-18.34464355557982
-18.619703497781
-18.489073910900157
-17.215867414890273
-15.36423986811306
-14.245277555339241
-14.626359042298109
-16.04185422278624
-17.531453858814384
-18.518830975580876
-19.17506711869311
-20.027245052742582
-20.78502069815714
-20.418546135289315
-18.546970665813955
-16.283687010452255
-15.171293261644257
-15.22068239915256
-14.87849995171532
-12.763792462837525
-9.418549484025533
-6.995060482039436
-6.72766570818872
-7.644524292703685
-7.504062974764947
-4.6843514137621955
0.4925935515313191
6.325033450348223
11.21533014119997
14.64115957777927
16.773580975067144
18.111572812247104
19.93555273231017
23.532880765323377
28.983822194289143
35.225065802207816
40.98119923788564
45.47071567759663
48.24189109584967
49.09157166011929
48.18955530775315
46.479831091034136
45.752390827385085
46.89316209864916
48.448256044929735
47.38455304812733
41.44888598388941
31.371614529184864
20.319316590528906
11.246849415529642
4.75951359019902
-0.6226702692235998
-6.400161224022474
-12.92362331337098
-19.526914733194143
-25.467184480751662
-30.522350275866806
-34.434800605208906
-36.840987250527824
-37.86594934273035
-38.30112517715833
-38.79882107335448
-39.088507733401414
-38.58295294470993
-37.19548751986868
-35.65642521910094
-34.96493245586855
-35.450002119089774
-36.93146516174028
-38.69616532971607
-39.334260222566854
-37.854872480018564
-34.9365094341784
-32.6187691711562
-32.40477954433075
-34.1543976293159
-36.55815186691625
-38.18591741042752
-38.640066896387026
-38.637134804027845
-39.26464786722866
-40.81080809850654
-41.90308945393041
-40.88688131266596
-37.903545960388186
-34.90313771487238
-33.38543615625084
-32.7673554128674
-31.610395252180872
-29.351101319581993
-26.81743723799461
-25.452907966770915
-25.715016139595885
-26.444659671199048
-25.796576263575375
-23.18218666737733
-19.990271531180262
-18.053936345025374
-18.089485746911272
-19.32820319071353
-20.451532240866445
-20.600657309533798
-19.62042362077897
-18.10214679091306
-16.642275256542842
-15.3277481751539
-14.096905006016003
-12.833115473323696
-11.272092909845473
-9.000144650309439
-6.12359541438634
-3.7555418021075155
-3.145896059711973
-4.393452798362038
-5.954186961895253
-6.136934443853623
-4.854099732739168
-3.2430561448052506
-2.2873563862462243
-2.0691661522911966
-2.323790899720191
-2.861420885535559
-3.150477040636878
-2.4663811703804606
-0.45615716934192196
2.2801967041452116
4.374592111509219
4.725294998050213
3.294287613810575
1.5735578033482147
1.5294450333075336
3.6092975585560207
6.449774816949535
8.440980341124147
9.17704838241864
8.983587094791519
8.149198906683859
7.119887473858273
6.437633133026069
6.791449755458348
8.871202084093344
12.717725640222652
17.448218505625256
21.67006866136448
24.359121603480787
25.028482487406713
23.727889315623827
21.308904386422746
18.888506711136035
17.135342860451573
15.846628691453189
14.3545020222739
12.493174729500597
10.644544050082821
9.21330324555698
8.112743172454305
7.123008309486257
6.82481858679229
8.252471790183199
11.514057072723164
14.782691851844397
15.250307814932288
11.24796000779775
2.8159835753664604
-9.792299495363858
-28.296778211756966
-55.27640975845146
-88.19449896897709
-114.0076051716015
-111.20699392971775
-61.514148722436595
34.41134402313743
146.8923041051393
224.65599408472664
225.91698938581453
152.24353953757927
50.83748084874815
-19.84642201759469
-29.809139770999153
9.357182844832867
61.126621896651706
91.62119458128143
87.64832906737662
57.775741341137476
21.48241250013028
-5.309808024380212
-18.079378059793264
-20.794982135578486
-19.08307550475334
-16.463950394372954
-14.803121300695123
-15.293180511331716
-17.93895210375327
-21.31289894289195
-23.33068352913813
-22.80054833635815
-20.182240490571075
-16.84461842457428
-13.96585677744748
-11.780702665372848
-10.200593333128083
-9.569150916807518
-9.968425029327875
-10.537783108731878
-10.07367321886592
-8.40009985859929
-6.447520893328625
-5.016060096377927
-4.241012959728776
-3.8856936347880753
-3.8121630673960776
-3.918746493777681
-3.920588786033793
-3.4623869653154786
-2.1522021790826953
-0.01711124203878711
2.3880262316904286
4.528255091433518
6.258665368384022
8.22871520782806
11.4900453900164
16.34258247719588
21.783696260068115
26.52718723850153
30.87818208709071
36.422065593547366
43.820695680671484
51.769675696883674
58.04679297556301
61.3659669770415
61.97075050051422
61.11395389224486
60.11337488962651
59.438475459091265
58.676911781946316
56.7434357889404
52.53644194706942
45.97710451023605
38.224880946142505
30.861338230938994
24.398292752500936
17.991959976592277
10.762138066509639
2.937013395905109
-4.1955946429502085
-9.708716902008902
-13.808162410116578
-17.16871689247548
-20.256593099995634
-23.06700456620255
-25.49768381898085
-27.57125856356578
-29.279239576933136
-30.567971240128415
-31.235648230380782
-31.192109630823975
-30.69882203144689
-30.293354897287934
-30.48968836485863
-31.200098830505038
-31.884176230168414
-32.04742025687865
-31.58794155882089
-30.80927425496657
-29.816412048740265
-28.590109548919596
-27.400583692997355
-26.71952509108083
-26.806956469943245
-27.174972372124728
-27.166120956848026
-26.916335479897597
-27.044266905270856
-27.56502211928273
-27.59477306273034
-26.459354929512735
-24.41183118247355
-22.283061006826948
-20.760897528307744
-19.7912684326995
-19.045988686400772
-18.52127989747677
-18.458788737425156
-18.87914811559478
-19.17606369062589
-18.74971098871636
-17.577193460638764
-16.09378604459744
-14.973476766113858
-14.551471740503477
-14.43101263444372
-13.533709151376524
-10.905432464786955
-6.838995889383331
-2.791524873133028
-0.2711841475868544
0.3558931359689832
-0.1930843645825
-1.014169944591354
-1.1773271446291005
0.07398337854008172
2.7216561173307796
5.573748779138642
6.992075296182727
6.459028249639719
4.723966801424384
2.7560646409686207
1.0789258201888918
0.23011248734285122
1.2408836307756086
4.411787144969399
8.533687738562254
11.925531994813328
13.694520003210831
14.116111601378831
13.903057282571496
13.584750425959244
13.321151035901272
12.976057962178281
12.547721674854168
12.132219214717898
11.693229649304808
10.833155191039157
9.151760722746365
7.352516632189571
6.875946025657712
8.265458072955557
10.32703710600979
11.166227349124533
10.32086093705255
9.35857926639249
10.504730459091027
14.646937326886889
20.556027709449797
26.156914178381765
30.261629976280382
33.257876966475166
35.551728356724304
35.802211941954376
32.34741041354767
25.80601322703346
19.204331107369292
15.405920784876363
14.97136799792209
16.45486976706089
17.930148189711343
18.42000449038056
17.80682699431332
16.08670791471117
13.704914284174446
11.80459203524612
11.609620849215265
13.159540114034888
14.79668190525234
14.157402270075432
9.145807521868317
-1.754252718874389
-20.159278661955206
-47.27072771498911
-79.60346496778664
-105.02205322160833
-104.85884548600364
-62.88836117728121
22.452280208908768
127.743266421491
206.81119853191234
216.90311441050164
154.51357506252302
63.63805830299685
2.5703995305239253
0.3723105466604282
42.36581468103046
89.80527022164222
110.28660390980059
95.55420800749434
59.50225708570652
23.697859257766318
1.9240038188102608
-5.463961644335435
-5.4048278471353886
-3.6456638988924164
-1.8328347914856282
0.003537896426205389
1.0330968555843234
0.24224719974901188
-2.2143568968725966
-4.963352868066168
-6.801720233765998
-7.385988638915665
-6.618073235665014
-4.767872338368546
-2.7412769643267096
-1.5760833571262998
-1.693998725065104
-2.779440563235423
-4.313033417357304
-5.592458289523319
-5.819851976710754
-4.585758590448641
-2.3497200281935253
-0.4873313125136285
-0.012829728640189941
-0.6647899412012712
-1.404771039564612
-1.3302856006693282
-0.27855530951263585
1.7155409407610396
4.847497750902596
8.999643244225389
13.491806223190613
17.773762850910167
22.193662386252498
27.184929269123682
32.34416757658641
36.866213701650395
40.2424043545406
43.00234006205529
46.232727907419935
50.013363584168445
53.136381754810735
54.4241034751268
54.16527282689711
53.76355808875628
54.356445684576194
56.05089639406581
57.90669341724545
58.62905922629665
56.98065361207002
52.34583432230038
45.533993123693
38.295362878163345
32.02076445313949
26.53665557574606
20.307305508036066
12.041030363656406
2.032466018817236
-7.356287492033537
-13.383008423750216
-15.552363937429586
-15.896696345770556
-16.916800994117946
-19.520705227574673
-23.053272042960977
-26.293532710996928
-28.071243237771792
-28.02115702186767
-26.962253309965767
-26.550934127612468
-27.875309096839036
-30.204197370188062
-31.823346539800287
-31.83391055077698
-31.182140452876446
-31.550825197301158
-33.37676839432177
-35.6969906990476
-36.996101758166546
-36.27873983199976
-34.077073680869006
-32.27143216517954
-32.58176593242438
-34.846288037668984
-37.1584125040088
-37.60029605701186
-35.836743293601884
-33.250301742456514
-31.344612444388932
-30.75066308143379
-31.291547858178973
-32.19312297534901
-32.62840091745786
-32.14300183677945
-31.01321131797978
-29.94430350844116
-29.258004921537346
-28.754050621438356
-27.996166739274372
-26.94593385627016
-25.985098690212354
-25.224969165604076
-24.297980161820163
-22.638399859210192
-20.401201153946154
-18.705257314471016
-18.5922303715788
-19.845085224643178
-20.53447777550605
-18.78794408424271
-15.010657186851331
-11.722141887724426
-11.449130138518823
-14.492216693515887
-18.82168863605316
-21.830370987629554
-22.190658396225814
-20.435908992765103
-17.74005457528242
-14.88915038752567
-12.237902236261512
-10.18312190553941
-9.365448486225542
-9.890591880402901
-11.107556954848281
-12.085132436787895
-12.33805702860467
-12.503394975288378
-13.626624624548207
-15.913949643185244
-18.165725307224644
-18.70627954966939
-17.12557471949512
-14.442073621390634
-12.083080021016588
-10.85413414397146
-10.732683097024672
-11.365433464931643
-12.13647555270095
-12.509273399732743
-12.437094847368625
-12.485503541757968
-13.639626237455925
-16.142235017225847
-18.71111711522487
-19.13406934655925
-16.301899351768746
-11.86615954277873
-8.755041980807414
-8.46944936472673
-10.221349703539268
-12.361920398470106
-14.07288489823572
-15.311133238957366
-16.18177810754667
-16.551365982837915
-16.367959728576945
-16.455154109600326
-17.855839167487602
-20.371454249132412
-22.296931363380683
-22.127150897864393
-20.305518399450154
-18.6728829765537
-18.792316491444822
-20.72120668605277
-23.3468120621601
-25.59947214680694
-26.654825516571023
-25.928848426517966
-23.09919785449033
-18.235708255919725
-12.288236546196034
-6.796100459316208
-3.1063333494917518
-1.478519978546243
-0.9841056900988687
-0.8891079290528818
-1.6187192819185299
-4.058396058794804
-8.061221497098249
-12.587602768409166
-17.08258942184919
-21.2094974347773
-23.84129572629201
-23.459442473536306
-20.072852826258497
-16.075524456720842
-14.20793039492324
-15.303594494437261
-17.818738449231006
-19.338935744870078
-19.094544870578563
-18.91943048289806
-21.883576238390535
-30.193701877410657
-45.271772248872075
-68.99449334304775
-101.02832430304667
-132.9524611835176
-146.71124773302293
-122.73504808394608
-53.76842974730277
43.93532339418759
130.61016245979457
163.2474667854321
128.71578599012548
58.85115209417302
6.560520495386221
3.5002524457974458
40.08315970196617
80.88283875166371
94.55345071517857
73.12549906510802
31.023103965616663
-9.577477509662893
-34.21120019914776
-42.064030567285315
-41.04559863796814
-39.35781131855609
-40.150974939307694
-42.073548451551254
-43.308159304506454
-43.848843963367756
-45.0777972226264
-47.798811082233094
-50.874818462644015
-52.46509658998738
-52.12498030925821
-51.07493768330414
-50.37787957341359
-50.00168617017306
-49.80238154667484
-49.95860340733377
-50.36452867531314
-50.27703223547605
-49.29731960191278
-48.202485557990734
-47.88524342593553
-48.172974643672546
-47.96322612836995
-46.76510341536917
-45.80988190204098
-46.6616932482551
-49.03225786111233
-50.385467057270155
-48.457517043950745
-43.96712437935973
-39.7127428474712
-37.42928723913141
-36.145957828581146
-33.89487494409994
-30.10210990875482
-25.57354486489956
-21.289063467765402
-17.520385623327776
-14.05826369481966
-10.804356170780068
-7.615881144225803
-4.189564080556221
-0.1402705906442323
4.301564732719779
7.820637734707037
9.090595811137707
7.864726892350652
5.130195647960182
2.029149979919737
-1.3238010845062913
-5.347675155754838
-10.039677366463977
-14.969658745530237
-20.277430449538667
-26.88014867230111
-35.1404687215202
-44.16299738180565
-52.211216389284665
-57.967813751165245
-61.498327486302934
-63.760477587113456
-65.94778675841901
-68.67900085435136
-71.41082106092966
-73.27965401660029
-74.34120938367316
-75.36873795909807
-76.41946618492125
-77.11101893911595
-77.83048647536958
-79.1025374099381
-80.4851939902993
-80.57973040735779
-78.68192033827313
-76.01446646208254
-74.43485232932765
-74.83710875601989
-76.62357422356742
-78.2848085698402
-78.56835653502476
-77.13625829573033
-74.66321344180861
-72.26481413748367
-71.04915662822636
-71.69409400439999
-73.65622219142001
-75.32103705897134
-75.03296079987655
-72.33504838257531
-68.34410699466055
-64.88993700403637
-63.42847768930965
-63.94521859472817
-65.14108078909203
-65.73907669990167
-65.23314343611223
-64.07278942904698
-62.89992243933837
-61.649830539862755
-59.66284556013974
-56.509216124374916
-52.81225437146746
-49.757377355438614
-47.997357668637385
-47.32208285293712
-47.127985579655345
-46.91505193212996
-45.93207349351625
-43.53275577688655
-40.38303517302789
-38.36962037496679
-38.91844002596887
-41.20225255914718
-42.88240198392782
-42.6451390545922
-41.21459577266506
-40.25923325697711
-40.409069328886666
-40.8070562900014
-40.47167570016856
-39.228972995373134
-37.4181075991553
-35.105230895742935
-32.340131199294625
-29.6908285831566
-27.883737885659148
-27.345749343950487
-27.714970986817004
-28.144501529390148
-28.213020759563612
-27.93952377139395
-27.251644348927357
-25.741018965937773
-23.290813476195165
-20.654027478491425
-19.172600506075877
-19.867670838845555
-22.01696999261089
-23.455347828159194
-22.906520977775347
-21.243003106586535
-20.153375925170817
-20.015197812952913
-20.0698918404142
-19.71055335427042
-18.687863241560734
-17.157312476164176
-15.5767255814392
-14.294470994626614
-13.251421760578783
-12.349211144163068
-11.841228001234606
-11.491414603787316
-10.456212617347743
-8.408241410267223
-6.040256667083518
-4.41732208512185
-3.6414392948699383
-2.9674930358763545
-2.276621206730855
-2.4846196628046053
-4.321212471371274
-6.969442187277562
-8.77677689401965
-8.77489252079153
-7.16551433562587
-4.993801600905177
-2.799079438235752
-0.014798427606932396
3.9130389721343457
8.295907633687163
11.399779459243526
12.354384802031172
12.078318435595017
11.998065543120717
12.49212256626171
13.019138743739017
13.699907246818501
15.378088865753927
18.262754250852613
21.358876543437702
23.20105654797092
23.55330690276238
23.668603459877858
24.50346785202058
25.4150673265783
25.23360972979654
24.51248135481761
25.167108432364568
27.827695976792405
30.63309663891555
31.17817533166493
29.7347466209194
29.238046861320832
31.93133942060083
36.845277257819355
40.79106033395417
41.69936560746879
40.065967030234454
37.75360285556375
36.34401613544648
36.3519770513179
37.82011707021046
40.800489658071974
45.15353955329895
50.3800579134827
55.990885280981864
62.310450283586164
69.77032068786723
77.1861303010011
81.63655198522295
80.92240910913462
76.55445320239626
72.81827505866444
72.54682511239075
74.61857311810917
75.74853022873604
74.69186432021976
73.38682883295641
74.00549733289542
76.5111787651091
79.56046721469856
82.95579455309372
87.5549964529473
92.76047973235364
95.50085384736606
92.90316186524679
85.49706255222627
75.25343030967603
60.65594298717127
36.644431730849796
2.54853030491332
-28.929941619898003
-34.13373400624841
7.084440972696701
96.24258952394362
208.87224359388736
299.9599860357624
326.838750959938
280.840694493592
198.70970147915176
136.74048573248962
129.60856904926575
169.5902592962144
219.47914538476135
242.8623163116054
227.2115814288016
186.98099308786362
147.6689828503477
125.35594475567477
118.99708675610601
118.67911317087749
117.61513852801629
115.0820944419879
