value
6346.648281953956
-47274.155421097385
-83725.82867374834
-74216.23965245315
62766.1486628804
448139.1782170644
1007745.5563114914
1307959.309558713
1035140.0617774591
464942.5607756628
45531.23288051592
-101113.31102248724
-80034.6691006966
-12554.946996373928
25331.80297011214
17700.815436926772
-4429.22881699714
-6601.541769620447
10982.390002573637
21010.704235310335
8892.888038401677
-8340.39022381897
-7071.33347809304
10280.720593013986
19516.52494632899
8348.031580369952
-7406.636389511111
-6364.049996268936
9254.559927775405
17594.349338212378
7551.710179795871
-6638.2645812926
-5710.214025582567
8347.70335415567
15857.398435049865
6813.157322530447
-5971.6250885971485
-5145.196495494024
7508.993926711233
14271.849957640057
6127.493538970465
-5389.887577561467
-4652.391038161684
6739.156715210344
12828.872321061666
5493.036793288074
-4884.50827420733
-4227.057967919525
6029.157363239883
11515.486459147574
4910.849130383817
-4437.843667884011
-3851.963258664873
5380.167939040021
10320.538622144324
4372.880961821785
-4048.5548190320587
-3524.545616392344
4788.503113651014
9239.632742318456
3884.460754061306
-3702.762319686693
-3236.394184135047
4246.661813887216
8255.139705154652
3432.320310655933
-3404.0293925199285
-2990.086234082481
3743.893987609614
7350.981442883942
3004.4119196998363
-3158.5648611031756
-2794.2506150540194
3262.608399785018
6505.36487523738
2585.199945412201
-2972.587145499382
-2652.5669910648394
2796.4972662781192
5714.608222231959
2182.970201447374
-2824.9737419624344
-2540.395836836282
2365.218515427809
4994.607765361087
1816.5907870236813
-2692.201214626602
-2435.758428080076
1983.0226973502345
4353.346259078423
1493.6835821662276
-2566.1642446778346
-2335.990021697663
1643.1316324759207
3778.4888231954365
1203.2293667715353
-2454.710023013339
-2249.723943004179
1332.9274281702726
3256.6932218883367
938.0363918582646
-2356.960396483177
-2173.532535113544
1052.9378542505622
2786.7771080701523
699.5600108384162
-2268.893945656773
-2106.0600836620215
798.1358198642438
2360.1103626643358
481.94683663862344
-2190.393878048086
-2043.537968790744
572.3117931790389
1979.854705819484
288.6798329490218
-2119.1792874134567
-1988.8312081073163
365.88409579344534
1633.8425266219565
111.75009913605646
-2056.349793516585
-1939.3842583821897
180.76677038790785
1322.5815402976948
-48.45578027931009
-2001.845438466978
-1897.1372066938372
12.901527322392667
1043.1082751140455
-189.75336111018976
-1948.2732132097426
-1854.3907384203344
-134.66602485118824
793.3104803025412
-316.69538649954325
-1900.636588411974
-1816.4898612662741
-267.39358396879175
569.5431709485958
-428.91648626702886
-1855.1937745124092
-1780.210306275438
-385.986849931954
367.51088243750576
-531.4138272155762
-1815.5005866836552
-1747.4780998881229
-491.01028936563637
188.89626717731733
-619.3372963425569
-1775.1723629332075
-1714.109972715687
-582.8375320342706
29.576150931160782
-697.9870634807279
-1738.5411200172325
-1682.8036895729292
-662.4377303158045
-108.83108790132053
-762.6319379442534
-1699.794479597388
-1650.6894416669386
-732.7630212516134
-234.46526156830362
-822.7406531921022
-1665.1824887003347
-1617.878265121022
-786.3814207151322
-331.54222584733964
-855.3071644026411
-1609.9944865747198
-1567.1183863522513
-821.826754318133
-418.09411517285923
-896.4195091200202
-1582.2382530803548
-1548.0731462687002
-878.7501846457617
-514.7864426825112
-944.1581740709283
-1560.1764714253097
-1527.2275564159893
-920.9925270239038
-588.7584009228548
-971.2397636978508
-1523.1208669599664
-1492.0245288160604
-945.4657183035617
-645.6162057090529
-989.2696314996172
-1486.4496745068714
-1461.0546853785695
-974.9816567121765
-715.9908546536897
-1043.3564349039043
-1515.7324020339115
-1517.5177866280455
-1089.0544645096347
-829.651100638973
-1048.2361777530236
-1352.9617074663158
-1226.960340365233
-767.2175168486515
-561.5383945840887
-886.3099005480451
-1332.246140393258
-1354.5617599335956
-982.3882007125128
-739.5099336520256
-923.2183979605084
-1234.9571116918205
-1231.4565883851078
-939.0749078019498
-792.2845991222371
-1015.8255779736705
-1318.0122193825855
-1301.4396926665595
-1005.7656368996301
-839.862219941904
-1017.093842086759
-1276.8709353164065
-1257.7596268097682
-991.0481894812701
-842.146932338428
-1002.0405499937779
-1235.7838427558813
-1217.9093366436844
-976.5574426948584
-840.7256643022356
-982.5616022005594
-1190.9487064648492
-1173.3033994365294
-955.1870283803571
-832.6644757852807
-960.2844738228241
-1147.4428944688188
-1130.3832537707533
-932.1971768614173
-819.8528505719639
-932.9602450222274
-1100.1582190442139
-1083.8487080362795
-904.4855354846738
-802.2358599173461
-902.7875776371559
-1051.850393954973
-1035.4164781364718
-871.7897134597931
-777.2555889738863
-865.2075728588649
-996.8082050270355
-979.196437363099
-828.874212196237
-741.0454258393088
-818.169136785742
-935.067240946733
-917.8076192357651
-781.1865976365034
-700.9433571456066
-769.484239669559
-874.5340908797841
-859.6253615976218
-737.6790561172602
-666.5845626689647
-729.610267366464
-825.8983197187468
-814.8510497894981
-708.4853485379372
-649.1544409885839
-711.5255297478731
-804.1981588015333
-800.022452431889
-709.317068578505
-659.8946429286548
-718.8386421295012
-803.7490155127011
-800.0719782207333
-717.1217586113536
-669.9116821427798
-718.847881373965
-790.2200290780133
-781.6695466546047
-702.3475352402947
-656.5241605597662
-698.8923851170578
-762.4914965491353
-753.9720813854475
-680.6995557460895
-636.5024517895453
-671.1329724835849
-724.9859402523118
-714.8028006076855
-647.8283304985712
-608.4403880736401
-640.7190641029758
-690.2706365803855
-681.5817166764301
-620.8147707057298
-584.0490409499808
-611.5231736757925
-654.7330075458697
-645.7603955882493
-589.9794527387426
-555.7170953676006
-579.1444629896513
-616.6793204215173
-607.3653070548489
-556.2169196221414
-524.828477915884
-545.7083493824867
-579.3482493787396
-570.4869355013492
-523.5421149685732
-494.2678686312298
-512.2300436288764
-541.9145983526286
-533.4968375607057
-490.8130186436197
-463.91235153425134
-479.4058428076482
-505.4329070018209
-497.2571161674623
-458.37342514517985
-433.7414199317077
-447.1369259730164
-469.74144487234355
-461.34022217124124
-425.37820885204883
-402.65205646557126
-414.72270416204566
-435.60590855176883
-428.7421153432622
-396.6630444166478
-375.81508608736783
-385.81309423384096
-403.6419187943174
-396.7028146792771
-367.4819645916238
-348.77076019430234
-357.91507599793425
-373.804412400793
-366.94962757263244
-339.856489837486
-322.5884826478093
-331.1721979875839
-346.51734385378273
-341.5414940456367
-317.83412612934825
-301.9417537056303
-308.16907874217907
-319.7580213597638
-313.1748113779206
-290.63759539557236
-276.17615672702897
-282.028448869203
-292.3188588338355
-285.5938542832728
-264.2160810253426
-250.5314189397086
-256.11679770301015
-266.58458784217044
-261.94477757367645
-243.69907170835188
-231.78811294082158
-236.8243980188634
-246.194482977137
-242.11495337332812
-225.8267278778184
-214.99141469496033
-218.928996037258
-226.15303719537607
-220.6966419225001
-203.97002294290502
-192.2842685716084
-194.4080567793453
-200.2489715312
-195.4289921935753
-181.06669661365476
-171.69681890191225
-174.8412919381748
-180.78961759441387
-176.26941676561157
-162.58953101464968
-153.47221677609505
-156.18660994033098
-162.09149034336025
-158.9609003962739
-147.3177518808273
-138.54556465514065
-138.48852502563446
-139.47292385834743
-131.2311266298349
-115.41335300395798
-103.92318067294708
-103.48563240108938
-107.38537911053706
-105.34657377039645
-97.55709988601964
-93.53538855619328
-98.15130422721745
-104.59555471829529
-103.65961707800207
-96.07295306028035
-91.04239579872974
-93.41750258867228
-97.23167171658048
-94.23371284589868
-85.3111947387802
-79.15494708106769
-80.43074619534309
-83.74570172060258
-81.29974901330742
-73.55653389077956
-68.73911660026582
-72.50907520136712
-82.22159043134475
-93.44668605597944
-108.70197423375154
-133.68967499262848
-163.3768355418872
-176.54523913448375
-149.02545499354738
-73.71502205246367
30.09244845729929
123.12772722540495
165.81035130974897
144.1837743028588
82.8648513900427
28.036314899587197
12.89214416641893
36.95320989667955
73.37564495337699
91.77815804536706
77.65633659071943
38.55058418325767
-4.2638420852082035
-32.696575903822165
-43.77497541380957
-46.25850086706239
-47.87227888146496
-48.45015450706531
-44.7821497457741
-38.05571213675472
-33.50045346854345
-33.766519095984165
-35.73246697794538
-34.97757235150593
-31.5443809969749
-29.20830913784983
-29.697860029782817
-30.09785542028858
-26.881104756744676
-20.942947529287764
-16.784419409449725
-16.78310640644009
-18.212020460167743
-17.00191389996455
-12.96606295371545
-9.525180240549119
-8.741935693866736
-8.595865634309497
-6.056449511269726
-1.4534054344693033
2.0088309615263
2.7544062776597755
3.0054315288303357
5.754698926954106
10.796531733832602
15.069911151731457
16.73845792717214
17.616683237478135
20.701977657899462
26.265585683207124
31.97925753548204
36.440521965090646
40.77831856909042
46.59694970187379
53.567668547598544
59.73399484271886
63.97167184752506
67.37034696433992
71.6283810315436
76.65943659105088
80.80701300151043
83.40407639502416
85.8771654304542
89.58154939268076
93.52182379757997
95.26282677752334
93.7627551107148
90.48731119130721
87.52885675726696
85.17286563510672
81.85123785803017
76.3528004783408
69.42572434860367
62.79256401189432
57.0892800159905
51.51506129220191
45.42771907041617
39.56124138894635
35.165274573695356
32.252210552395425
29.479519817351513
25.95165843987292
22.48511775796954
20.6104598645827
20.640103236913248
21.271649066220558
21.192664241571073
20.555502032286558
20.32702315524982
20.58669262885509
20.375772702693652
19.196618447322322
17.878962043642364
17.661665484885376
18.70510159555782
19.909395820609152
20.277848217307955
19.99959393306859
19.88944814717899
20.216378434174977
20.590895956799475
20.793190923500966
21.135030960920396
21.848807377837243
22.54608782005942
22.663054439397406
22.34153075344533
22.50973758245165
23.8590241718261
25.957641449966804
27.68768759489866
28.41490579139657
28.49650720370925
28.714334753790144
29.416854153975223
30.338365847170508
31.178751948483708
32.0905053889129
33.39283496289879
34.980030575226834
36.33123976770009
37.07017325859823
37.34027832514069
37.62246695401592
38.18354932518535
38.77073715424816
39.01090953453245
39.035215072033076
39.35393586873806
40.088285421036204
40.79067542972105
41.152651649077455
41.52535449013848
42.5414256683177
44.3382577720929
46.27017895347339
47.445542807643236
47.60994818312879
47.31158139039786
47.08540531491224
46.892539676752705
46.61438193729002
46.680607190314056
47.68697795572737
49.462995380552215
50.99522180713173
51.37908658654291
50.66330211041344
49.73702819402325
49.41839451591958
49.69250641151041
49.91408293947068
49.705598112302184
49.40074137582272
49.43643235757469
49.60632568040458
49.31816373991095
48.50603705277264
47.861976034938216
47.964656827893705
48.45307805660154
48.44717398531476
47.74062996081277
47.08193709775399
47.05154047772315
47.22885259502611
46.974285883992266
46.64525489184587
47.56999366390701
50.8312923653763
56.03081346597761
61.21243571677739
64.28183767753765
64.73751451104907
63.72773816665459
62.288422847615095
60.24460719311902
57.06351427175452
52.9984158516538
49.00961041849418
45.88860901991673
43.77471615575069
42.475632184834524
41.88082831342174
41.78437238841927
41.529108608706636
40.32165630183641
38.13230734059125
36.01172010096774
35.1210807580664
35.39975490237678
35.290460580454074
32.82701349242433
26.894548350817985
16.95026855601817
1.500629750039284
-21.275973671481744
-48.81921354124099
-69.60514855776343
-64.92506991898985
-18.4675287943289
69.90565173584586
173.9059333463235
246.59243742529145
248.7612815787118
181.29429837206806
88.33501466643632
24.994272694939113
19.23028643963201
58.596717496786525
106.8663901739629
132.0664704618379
123.62091382182108
91.42838544281074
53.94909046249861
25.321287757674654
9.539428180811138
3.4200350755180198
2.476913295658395
3.8862182849101465
6.069153358050565
7.6284630281534564
7.617284643858564
6.297661038450567
4.747163659944755
3.67203242522187
2.9446683772819435
2.2720171956877433
1.9163595686259391
2.4582947081911333
3.8966060643415834
5.299877196673841
5.68369632386557
5.090710973543554
4.459066598896465
4.510992444608183
5.035513664015602
5.375662298922809
5.437933392728555
5.815689281740312
6.909565552828889
8.392085586833856
9.735267945298691
10.9489890341149
12.49953742330663
14.586298165941182
16.809058661285995
18.695628896548115
20.346915884433294
22.345741483147204
25.127601008266122
28.59498417877321
32.37649217819113
36.35026155753495
40.62692008981437
45.07723063216928
49.33314037563154
53.20678720579645
56.827818563454834
60.444237317062395
64.06817422714307
67.38318047141553
70.18201986168219
72.63087535850927
74.84806984816709
76.45837298559341
76.83353942872883
75.64447766803549
73.00808224383958
69.26547023798933
64.72578085596908
59.43172330388202
53.09972992666832
45.56930966889453
37.2907027179889
29.00946961632353
21.23918988332819
14.317004744110264
8.441636408318631
3.41783928583814
-1.193645807095901
-5.534339560824861
-9.274424102669656
-11.997302595055086
-13.737985823997805
-15.072811904629418
-16.492288002502363
-17.89613926849203
-18.925373554992
-19.480039420140283
-19.76521401210224
-20.03092121731098
-20.318753085241788
-20.463885435900853
-20.383963775050027
-20.2991433286708
-20.58488207832814
-21.367109834629805
-22.329783411796498
-23.032528306124334
-23.307692919931853
-23.286354406151816
-23.193951026850606
-23.128620470222565
-23.018850436675248
-22.828955312780465
-22.68505867010938
-22.721426275947337
-22.88143657888506
-22.97860776975057
-22.880396930353335
-22.470527849379494
-21.555229892275356
-20.02899980897785
-18.14984649006409
-16.52760949632941
-15.662560788642326
-15.47201742791092
-15.446180690427012
-15.238598913814467
-14.857233607038223
-14.343130188927596
-13.626375574470899
-12.749075237960106
-11.968173765975463
-11.536757908355852
-11.411825476377382
-11.234292604720254
-10.700191915751045
-9.945636860624466
-9.400967555062044
-9.205305974510152
-8.971158537705332
-8.23908395891561
-7.062217824281821
-6.037149386317583
-5.67785208277954
-5.820519111112188
-5.796171191344328
-5.1854319999410485
-4.253142384130522
-3.5481912869579464
-3.238535172652619
-3.082086004725726
-2.948448625498031
-3.0190029332572643
-3.3921080679941955
-3.7852162036432393
-3.8546576630592435
-3.654189689860849
-3.5375254196926242
-3.645665717937509
-3.7188826656769933
-3.4853446663022356
-3.0523651332882267
-2.795189223778812
-2.874945778480104
-2.95553119562737
-2.591892773657651
-1.8663964499394963
-1.3344263598439363
-1.2959556834363464
-1.4239750430574765
-1.2927564952809734
-1.005190575436619
-0.9406955318714848
-1.118210784333908
-1.265792661446439
-1.2774157497317775
-1.034226490716678
0.006225341793879902
2.511090972962917
6.713188619526552
12.136868107328986
17.498003399886986
21.174127535799247
22.343508783972528
21.52989275097694
19.67121251120112
17.006108735347834
13.325886956073353
9.027138465658906
5.309557276619977
3.1187069126953086
2.219761120175477
1.6255404251867982
0.8233438051471191
0.1958413050865958
0.08932449894757077
0.004174343921387491
-0.7550110909345465
-1.9781552673352722
-2.695496725342044
-2.4223017712748245
-2.0549718695377193
-3.432079996047925
-8.014236603246705
-16.494783188441488
-30.178168075737375
-51.37932222408704
-79.51148167292682
-105.50124868459062
-111.71958099148925
-80.28860484534604
-5.628101659542688
95.21154852822896
182.62994725642048
213.84154527748672
175.22987046220186
98.06570298831203
35.772674226645506
22.180702432649817
50.83702640303858
89.20683330368115
107.05146180730006
93.95473169172571
59.18654939079208
20.73945628905625
-7.304273363382011
-21.2885534107449
-25.591670890101213
-25.95109363691886
-25.27969171633275
-24.131856737581103
-22.902930300399305
-22.437540542946557
-22.943085805870783
-23.444913045589566
-22.903155420861662
-21.527535611422856
-20.467620930075746
-20.32684982208171
-20.525341719953406
-20.267277906283304
-19.683803121840924
-19.57203600263726
-20.176123004972744
-20.752215334487136
-20.442327645398276
-19.23985333302842
-17.84483314026118
-16.648877689735322
-15.207821711116978
-13.013593575872934
-10.516910690339722
-8.717487257669006
-7.736354837766465
-6.549995614410776
-4.410215756804947
-1.9138846921122694
-0.21494953718223564
0.4737000318347946
1.220784108426067
3.388815063590305
7.4020670446029575
12.383632688975881
17.1076982587263
21.19533136788181
24.98704932246797
28.652508883582154
32.135184966013995
35.584680486159186
39.27718383742667
43.22744172629976
47.0107480764772
50.04250757497289
52.14212221655015
53.75792035140591
55.421288096894514
56.90219385806337
57.22030866976203
55.63372468088032
52.26700785047942
47.69090892353529
42.24412396883708
35.93954844183247
28.785647554027253
20.896080976056258
12.540792788895656
4.384026429361521
-2.740129375248294
-8.491483534138633
-13.136716896879477
-17.05718886452523
-20.413049563011704
-23.232470057887248
-25.619833537877334
-27.724361523709632
-29.570068748912746
-31.047836630997423
-32.00062108233312
-32.31471706147319
-32.03579048470332
-31.456880385194232
-31.126959852556677
-31.584585653822558
-32.88009398346906
-34.424389308213726
-35.39038176202449
-35.34306821911064
-34.5381841706061
-33.501695525344864
-32.41947498725165
-31.21551762240332
-30.02854819317811
-29.210837942358406
-28.920126058625726
-28.937119196992292
-28.889406841973262
-28.61070819985722
-28.263042189302265
-28.070172509993835
-27.96756069278845
-27.622024239441217
-26.80761965987579
-25.666276984140183
-24.551903626669965
-23.641911002807184
-22.79841730167381
-21.860324263441882
-20.89811277980509
-20.07526251609377
-19.39008615647701
-18.71089602228967
-18.07555537554267
-17.724958309491065
-17.67013408806772
-17.462159108860394
-16.69420903540103
-15.580704453360038
-14.709508597463868
-14.30803380556995
-14.035062346610104
-13.485253868095805
-12.681752749385073
-11.961171842729062
-11.527452268626465
-11.288058686792025
-11.030270824564859
-10.65725750051312
-10.300126030094509
-10.12812850703853
-9.96377373718889
-9.305207958489696
-7.90369171189753
-6.1332357663536925
-4.6963437899494265
-4.056815856642473
-4.085331319244884
-4.200616572854613
-3.933406939999788
-3.286679373323923
-2.5276883720233307
-1.8734545742016668
-1.477898130949213
-1.4618622996041108
-1.7509528259981062
-2.0406991438059627
-2.065259278150398
-1.8611973067520036
-1.7828415049892825
-2.199091155637608
-3.0389156449794474
-3.615795675404482
-3.1280838342445865
-1.6304962217245191
-0.23558159679564916
-0.0053522433838021355
-0.9545858529655402
-2.261560722405141
-3.0839212875895696
-3.0975718407741666
-2.4598846090510165
-1.407512751430383
-0.06171317420521549
1.320306079076105
2.1756837071197146
2.077077801239701
1.312402569295306
0.6053400060409784
0.13486915860741433
-0.734369587226236
-2.4470022312942623
-4.3858195515181695
-5.412491171330075
-4.921575744129192
-3.106781405111856
-0.5281686843490916
2.5264774868821966
6.272381831537029
10.745421549196621
15.062773390470301
17.875822679334526
18.63559427842595
17.99438813569525
16.769293866305944
14.959749623161125
12.10359207443139
8.370593253730279
4.907920444395895
2.8089340616835066
1.9771037700429832
1.4844126753807032
0.8178820777885778
0.2900436472017593
0.27192137854676346
0.4008255172933316
0.037284464835593834
-0.5759506852851872
-0.5166138394355797
0.17757199735453028
-0.11614521732307453
-3.211141216191809
-9.806628700384437
-20.270597895612138
-36.37448777131641
-60.38245349746631
-89.76460393401244
-112.29407644992209
-108.80939354275506
-63.891724669966095
21.76370917789898
123.54777710381568
198.09582219991836
208.40524715558152
154.85147146639682
79.48042930246449
33.307141739179585
37.47646157370166
73.9280664418341
107.40553691554895
113.05972934913356
88.38138633597164
47.9673671488453
10.333372616071316
-13.618233483013489
-23.897100073583438
-26.47163240126885
-26.49366148998034
-25.705756835255116
-24.254583904619302
-22.89277679161198
-22.6773058878623
-23.427477022206368
-23.796569348681547
-23.064532371206134
-22.042345972700844
-21.84243552721797
-22.422416449458595
-22.85280823085154
-22.644666672577358
-22.324876774933706
-22.618476189066843
-23.298437217329678
-23.26599493481836
-21.885583591989402
-19.8462581105162
-18.373150525250935
-17.823108936081
-17.465152979637846
-16.49645156076087
-14.803125257789073
-12.743193213598481
-10.637504642642229
-8.600164858698061
-6.700855965936184
-5.137265335350106
-3.944489733065131
-2.56313683155106
-0.19299223168665453
3.3357069979193463
7.339504022117156
10.991731694615723
14.193668497562909
17.64416751718501
21.962658407773603
26.874419156923075
31.4552459767491
35.17944645981224
38.453664267375835
41.914438579854696
45.4739617596007
48.52190819318025
50.897038743261724
52.98595943534677
54.91693108010184
56.221944720037115
56.2870435099863
54.87621114642389
52.19327275373812
48.47171026328834
43.62359892644228
37.582634227165336
30.91629073020249
24.489282084855272
18.51192805339619
12.540999059404687
6.351408419907044
0.29022816657803874
-5.189614502834664
-9.969052210297495
-14.110672321389247
-17.530235484251495
-20.07803131931905
-21.81714696471458
-23.168157731372
-24.75163346890383
-26.77544168815021
-28.717451701782707
-29.96759284582967
-30.528638128819928
-30.785877761122503
-30.80814466924045
-30.263117970545206
-29.10208392276665
-27.990749683553425
-27.722660379781683
-28.3127139982345
-28.941623377237505
-28.82715637261356
-27.98934161269719
-27.08737590409101
-26.73215057140814
-27.073231319299826
-27.890537161201493
-28.929790793130174
-29.974281683603106
-30.662548147055723
-30.600993441143586
-29.724152319279654
-28.312246678450435
-26.670172713421678
-24.99298536816306
-23.450275617914855
-22.18776265910613
-21.248043276118057
-20.544198326805354
-19.93537041635506
-19.33587790256883
-18.761387438397225
-18.32065201273673
-18.101871408747225
-17.958337800910165
-17.51771035522291
-16.585200659354726
-15.46397176844778
-14.64449373420835
-14.13318674095297
-13.284600780200165
-11.505470644213396
-9.121418421649516
-7.28549364003948
-6.847024490865984
-7.505784414118718
-8.240966920051756
-8.306106427203808
-7.64258666603187
-6.600473030645845
-5.476390587528316
-4.328111467587209
-3.2139441300343603
-2.4221300384568587
-2.219553428730094
-2.4678729431778885
-2.7562464822696002
-2.90515879165743
-3.080105992423037
-3.3226056607241246
-3.294923348574494
-2.7549506907075316
-2.004768963770522
-1.5770180511653455
-1.652951298699453
-1.9313305130246348
-2.0350618118982777
-2.012574417237275
-2.2095002953158986
-2.623811134296669
-2.827776728230985
-2.6545848569523747
-2.529452931424787
-2.8343448267481186
-3.221671913436551
-3.038265637481177
-2.3554581897237363
-1.9564355682652392
-2.2560175128682323
-2.784481033582582
-2.79283157053293
-2.018781848402436
-0.699345060986485
1.0078962029111593
3.4691723477496943
7.407262287004446
12.907327764807416
18.59696867070243
22.46883488744327
23.60362811622039
22.728109162061536
21.04574210700256
18.924491504334206
16.091953160722298
12.607127622470552
8.999994982410625
5.741504484508985
3.0583686186013965
1.1733032467035447
0.34919497292399415
0.6269772985110004
1.6087126245336616
2.463624987964613
2.435901924287501
1.632966933227475
0.9561344898724998
0.8948040860473127
0.6418543352390506
-1.338555253623591
-6.269467931149163
-15.244788003604832
-30.40159453039105
-54.01634534436134
-83.51684831393712
-106.75354216116168
-104.24424745733393
-59.267168095186555
28.74343751756556
134.5083033690793
211.8446191517309
220.34774740340424
157.9066071607337
66.50374359784601
1.5976478998305055
-7.174417303676235
29.216281267935123
75.56631614265822
100.31807981813893
92.32609486978465
60.3859102698066
22.497045261978784
-6.58497746161852
-22.13077614411746
-27.49243223921587
-27.921257582306264
-26.671882691132488
-25.165626000865334
-24.359794158209674
-24.705702483318912
-25.50066755814925
-25.54660619258674
-24.614729444375584
-23.654068821335194
-23.417493705823127
-23.477040810719
-22.946853086548074
-21.72191867206547
-20.53151020507659
-19.93776823481192
-19.67172807310709
-19.063822467658667
-17.93539177198093
-16.794201328647684
-16.09605469249403
-15.55985310605948
-14.5039621067206
-12.805593066433131
-11.146977248168138
-10.154225847901397
-9.578711322439268
-8.59653050269974
-6.723572403946848
-4.135148605350877
-1.2698627544988668
1.6025272807626563
4.584824792367458
7.9278741920251266
11.467093616967171
14.758871381270348
17.95170905528559
21.866786098214735
26.97034592935459
32.65641886821586
37.780017481064846
41.8063561573162
45.24393241896612
48.88502164401278
52.81527353838755
56.38491088169688
59.02955877094415
60.78910156890745
61.949209142834235
62.430331280501065
61.80589596691973
59.840992554110755
56.64171712332821
52.30200930662524
46.72843817117927
39.86603583151821
32.074785541387065
24.18411430305463
16.88863675272954
10.124519330307036
3.418275359463789
-3.1849827280046377
-8.966247004962703
-13.326216769117117
-16.37951983060874
-18.68674019045354
-20.66169252355815
-22.367671486380388
-23.73976693786252
-24.81579732176926
-25.700055357383924
-26.451070822588825
-27.172518682992212
-28.05465222321481
-29.159581041075274
-30.389450618688212
-31.670422279673225
-32.84411095749017
-33.490685736904936
-33.25500380734276
-32.35340763009507
-31.458480319774218
-31.00009603841151
-30.84802431781334
-30.756487809576186
-30.739728908031246
-30.8685799159741
-31.03024099702763
-31.063403413164174
-30.985847601553292
-30.920076573430954
-30.753515364370326
-30.064486215692273
-28.64045765410039
-26.945457910908925
-25.73131039972397
-25.210678564032115
-24.84932002154234
-24.056215559521423
-22.972109153106203
-22.25332356637217
-22.109689648957495
-22.001093102099084
-21.221794217249066
-19.538389683200116
-17.40659723756928
-15.598628132739988
-14.53594434876046
-14.088108810390963
-13.941073580220323
-13.884024111084504
-13.768640332070097
-13.416816454700049
-12.718902185588329
-11.825683226336473
-11.002530266038809
-10.26164474345745
-9.380615072184897
-8.247983892559526
-7.043153923971508
-6.109138357285751
-5.68818141656066
-5.726620726424562
-5.918731643028694
-5.993420537707574
-5.917973632056536
-5.767321689079495
-5.463326803099938
-4.792129116714181
-3.78044006045438
-2.882057233250599
-2.5381692218338125
-2.635052459554127
-2.615770549595852
-2.0974183110186626
-1.1879537530337214
-0.19833508767361452
0.6901156609446141
1.346027983007138
1.5122623079041568
0.943377821530774
-0.3035689463038078
-1.757650697935693
-2.7420899527871008
-2.8732678837939742
-2.3862763912132934
-1.7695661762919732
-1.1349581457215183
-0.3190565254838833
0.4026717364928747
0.326856085858819
-0.7001859440240319
-1.7349416814666563
-1.5238076464960741
0.11124734777715262
1.9800563620463754
2.8247765394311743
2.606171466111782
2.3119630382883725
2.745898643425746
3.843065115197204
5.196360370399093
6.959348264462265
9.906171829701758
14.370434987055031
19.275305634446514
22.659922382383247
23.354834874483707
21.904105031454144
19.557980395015235
16.715479945549127
13.071408241743688
9.003089515224376
5.72568371990884
3.960139213906843
3.221437812329339
2.6201235884502903
1.8646269293751494
1.1960692230562842
0.6586148748819719
-0.152299024294401
-1.5511964967893785
-3.0643737955965333
-3.5470233588630298
-2.5105038712102754
-1.2556748234595998
-2.121654625912289
-6.79711370038552
-16.09877798149927
-31.419853527256166
-54.75400217337496
-84.51986921999686
-110.20464636800503
-113.20368470690228
-76.39681590917456
3.1380357962540817
105.21800060604477
188.65690851181557
212.62342728413182
168.96882563689047
93.80477524831986
39.98066997305368
35.56170079775638
68.16226868768341
103.62953486527474
114.50558663797408
94.44778967096242
55.3778616160825
15.768313752869615
-11.419956931934868
-24.150780399327296
-27.826056158553953
-28.214435316477342
-27.762757194239004
-26.756051607639392
-25.64271476475312
-25.275344036018485
-25.655811849862594
-25.641969317697164
-24.334893462676753
-22.33377776926898
-20.99238404824686
-20.619358133631703
-20.281863280145167
-19.37095844363415
-18.39401521369736
-18.025181042437435
-18.053585989700945
-17.595612293636236
-16.21390165637982
-14.557306218175516
-13.66039964312284
-13.777748187019673
-14.256383781143239
-14.417209808234835
-14.1018340992271
-13.366644156044082
-12.075808319035943
-10.013831284662357
-7.317215212597197
-4.5837672002495635
-2.3214090940211536
-0.332013229946432
2.07629898588133
5.266879595112038
8.870842292808241
12.22153470447784
15.207000478063403
18.60782567560705
23.236100836755966
28.841774854298947
34.423315525497365
39.439534802647024
44.04464921686578
48.30273080256025
51.89163512279356
54.57774363532697
56.51818747237906
58.10704833045513
59.59638423733253
60.75978598343918
61.055852609594176
60.121207827130505
57.89342884892908
54.298550997860815
49.048080992260694
41.92426843256063
33.343738114030444
24.46667666223495
16.463319141314752
9.633668058620847
3.3882673744585627
-2.8252872346617477
-8.77411935569804
-13.793766496635403
-17.58452541015048
-20.39843134439722
-22.614213927855328
-24.429298039015222
-26.027464421323693
-27.694502904324303
-29.538595409450565
-31.21875324105735
-32.09626158071012
-31.811404356447163
-30.736929881342416
-29.75736582875519
-29.588712472427915
-30.310029496072
-31.45529093031052
-32.471337796214094
-33.16322892393382
-33.75715023560639
-34.39004303850072
-34.62923256099345
-33.91923083238744
-32.41778128637126
-30.910612047257302
-30.00069891153595
-29.711573208247888
-29.74214191750928
-29.810494112480217
-29.6853386699604
-29.044464594793396
-27.64997948617509
-25.824810190966943
-24.39262727643274
-23.89446287926535
-24.062939376170004
-24.14828572035791
-23.66248183416656
-22.70583126806256
-21.59766618644131
-20.509334369818816
-19.507861521789064
-18.59637491375678
-17.707428252907384
-16.860336137458336
-16.202205143099693
-15.772036125963067
-15.415341438133344
-15.083463598093761
-14.939660614471125
-14.962375323496572
-14.757532233217631
-13.940138658010307
-12.518168054612621
-10.863363937692498
-9.33374160930452
-7.9515206976407
-6.576435310305914
-5.328779669525233
-4.588920779140713
-4.5129045775000245
-4.7443218612326294
-4.756503947075235
-4.379695239175359
-3.8550816900348206
-3.4848074452341873
-3.3898740771737566
-3.5179337885869746
-3.776638158297435
-4.158033177893238
-4.6545878341655404
-5.048814626589451
-5.018178223467755
-4.539854840295282
-3.964876434834398
-3.6219432111908083
-3.4973275322925637
-3.3307665095984844
-3.000351728437902
-2.7126812850936237
-2.6202128731149847
-2.4268510672282293
-1.7725857197455153
-0.8565166704523421
-0.2692960072605963
-0.31629491367014695
-0.7473554968834644
-1.0337819421172585
-0.7998994486161766
-0.07749793975851893
0.81485459180296
1.5359146989000285
1.7422374222023307
1.1221384211124823
-0.25806264157788505
-1.6958037466019829
-2.153492538373203
-1.0214244825127108
1.3189186606150407
3.7915740785080523
5.709269817809257
7.602807529176111
10.633864794825854
15.025668032888568
19.490474778119044
22.40232975913752
23.125401589468893
22.029747744356882
19.638541080492352
16.218810352188967
12.203430370501163
8.473126242152746
5.762801289980541
4.08565051394589
3.0974042392577195
2.6956726400984508
2.9882637611658085
3.7953640589599877
4.2905687961397785
3.482197159048173
1.3914289659715866
-0.6288782186749906
-1.2153452093572765
-0.5480803005499717
-0.47177986942016203
-3.134919946450532
-9.721787870510534
-20.968013458648205
-38.620342326688494
-64.06209330388997
-92.8052550555709
-110.61048299184039
-97.77034091091916
-40.799307775329815
54.422833894812726
156.09675596283148
217.06939850533058
205.177323229679
131.65230574506876
46.4469301221503
0.8765539142024963
12.072347629843428
57.870438208768036
100.06903841474885
112.27852831820537
91.7960545760661
53.58425727699937
16.33728551384904
-8.988582025404224
-21.8403133133772
-26.90846402276305
-28.215769728171896
-27.507017409842607
-25.74841372508874
-24.1881901821272
-23.764671367963842
-24.26555631754468
-24.624221186168242
-24.109738848611812
-23.04323270979685
-22.165116966621525
-21.593447917849527
-20.884901712561103
-19.98034923164787
-19.485963097798315
-19.80986000249918
-20.45429413556164
-20.52695589269838
-19.818902111338332
-19.010309685583742
-18.679546708965592
-18.512645176201538
-17.782511853553956
-16.348488270376833
-14.906703588843374
-14.118645921067978
-13.637480743841438
-12.458681896253267
-10.161069239163128
-7.232111551147133
-4.236047669402335
-1.2186490681815427
2.0370776604833902
5.592149232540227
9.299341703723751
13.014445185280247
16.86602280471375
21.16754336774242
25.91257326434287
30.67493917043163
35.10787703730233
39.203216225740825
43.02786826602305
46.47642555553572
49.41157917616874
51.893876033648915
54.10722070324142
56.145387651787914
57.83398253771252
58.61299632791484
57.78151740021259
55.067909936113175
50.89195682734882
45.948925656338695
40.57876951181109
34.75944387575373
28.57659214295157
22.234302824972517
15.739108601780329
8.98775711668164
2.0844281786779524
-4.568604737690013
-10.443554143991003
-15.238310642174191
-19.07325355794108
-22.143664227704942
-24.30328146500981
-25.40583228353396
-25.885793244195987
-26.45026778845444
-27.374605671259964
-28.434853576473188
-29.25345038670949
-29.714344811810435
-30.196313192938973
-31.146674024528718
-32.50071839623243
-33.73362322605542
-34.352379025844776
-34.30182576768837
-33.89652857585479
-33.42070392667982
-33.004415450569276
-32.73035806192952
-32.570151973075774
-32.34453651783151
-31.92318377053749
-31.399121825241153
-31.032790659143433
-31.016249621732
-31.18544558612112
-30.994078295517316
-29.95465517713341
-28.202711694329984
-26.4926401378878
-25.40114214518424
-24.691562983989257
-23.810102433421104
-22.72458473284785
-21.80113179106834
-21.149905543736807
-20.5387030021223
-19.744062892908516
-18.77892799008313
-17.911747552386487
-17.403646947407832
-17.2048831411003
-17.10329306776537
-16.957522966938797
-16.542405820920486
-15.532787856737169
-13.932994450313515
-12.216393312339953
-10.790624156527148
-9.659620185967947
-8.764265821625983
-8.225360772102238
-8.126250201436532
-8.302971869530666
-8.36671867875798
-7.865866326428444
-6.5904019201703825
-4.897299468721934
-3.588583396551166
-3.195872253198025
-3.4203012054131054
-3.5614708849816434
-3.395821265333341
-3.210413399901909
-3.1161966628544238
-2.8532095732538245
-2.341118512199231
-1.9977295378346631
-2.1837438922075973
-2.5544658721410007
-2.412893709775772
-1.660619787189132
-0.9367110501758915
-0.7840279096524216
-0.9769009885352791
-0.7455584935805442
0.32534726141598025
1.7839108990035215
2.817206768097828
3.043966581721584
2.7753323618715555
2.6891711159715492
3.3263961963528925
4.933326689991287
7.707691825056022
11.889763547930723
17.25830725139745
22.45110364359132
25.41969585269204
25.339637094391897
23.49963748200831
21.48844381222532
19.40524510735031
16.577690939163414
13.002127557676442
9.430667703660117
6.601801188813678
4.717750698212367
3.6109661432696267
3.2436459957806623
3.712423778297104
4.69536946213298
5.268853861829897
4.672961245053369
3.2489989984519205
2.267397950272974
2.514910961371524
3.0387111541358713
1.5981795299513077
-3.5651497583389724
-13.040540303317522
-27.656878558981873
-49.13855240598454
-76.65798440969701
-101.41079935557921
-106.11087514805587
-72.87590185029015
3.959261679052073
106.68782406590535
194.1731840173745
222.47387729991627
178.1559915738214
93.3775739394133
22.900039706732496
3.1851163337322133
30.85852986947235
74.2800028308716
101.04506280771888
97.07428004670994
68.37593450528692
31.50231130894231
1.341176266929628
-16.38599583642817
-23.996595117896142
-25.91495883813288
-24.98716049175923
-22.84192214514718
-21.019623790291448
-20.652160028206147
-21.567961641524214
-22.421362361439684
-22.111685067650004
-20.999095951826067
-20.372915186224844
-20.795889537296244
-21.483122841339366
-21.436725353365787
-20.66411433827799
-19.905851785393995
-19.467530811623472
-18.833534123728022
-17.485300514828943
-15.682164485717928
-14.1167758780148
-12.952269714634243
-11.651299767374658
-9.833043310608787
-7.822948265071538
-6.174987442589465
-4.9497516112214335
-3.602684814487198
-1.590629023107339
0.9333302390561476
3.2889902794974155
5.185612905818321
7.081991772418248
9.505865549579656
12.401013399055
15.399256497937909
18.50672707535202
22.200455043211466
26.78117630824948
31.820124111123164
36.46553334219191
40.341317149741336
43.91786627375474
47.75412792364
51.67668828238789
55.04812306286723
57.58624022140421
59.58928727465151
61.30651125773042
62.3314690097601
61.93104958224434
59.88985268138168
56.689701224717844
52.74888796988712
47.78274621276653
41.245119033933896
33.215705626829205
24.52816860132731
16.193821244284116
8.792322816481839
2.1862890308959666
-4.079934717946124
-9.987303707142754
-14.96947964817039
-18.693721664385063
-21.397171828019182
-23.37402562632171
-24.744132014288642
-25.783600436141267
-26.910931509921582
-28.214458901048605
-29.36369272139432
-30.08896330318211
-30.452109408093918
-30.655394928050566
-30.869146937758835
-31.187829596948347
-31.555937694857505
-31.811631315165805
-31.910162680821436
-31.982476862763235
-32.09143653997505
-32.06018605823698
-31.683245086618427
-31.060076910881612
-30.491795017397642
-30.040612293817805
-29.55460146258022
-29.156513939259426
-29.19047293697266
-29.586252456261402
-29.740655340315207
-29.218848846383914
-28.366699781166787
-27.885585728564322
-27.812914900487364
-27.45789632107234
-26.388694512100226
-24.968756969387982
-23.868224374543875
-23.296794074331082
-22.843723734907478
-22.07404628635417
-21.033854607473266
-20.035920830205466
-19.18534498702255
-18.34603789481995
-17.475051074508237
-16.723407429306846
-16.238214555181855
-16.039215413069023
-15.973488597514848
-15.681662458803798
-14.814864471330898
-13.432162066971705
-12.050773845700585
-11.155706318858229
-10.69637362719958
-10.286196256713339
-9.801397054029152
-9.340420602561334
-8.76988151581025
-7.869050181883802
-6.804645407444609
-6.00868273339764
-5.60411197869052
-5.263163885479541
-4.697719942067374
-4.067778472764602
-3.7229581727448364
-3.6483265812069128
-3.4107829401856393
-2.6723901750560866
-1.6063886414135196
-0.7341691301407418
-0.3639405632958683
-0.28239939861385355
-0.07635324522899167
0.3289201635461304
0.5842429631974989
0.3814417643670367
-0.17481434056517564
-0.7842509685990424
-1.3539315095693207
-1.974890220345504
-2.524428213114863
-2.587630517376152
-1.9876037148819008
-1.1382800083653866
-0.5859147088605159
-0.3704294763885325
-0.13637074899251744
0.20711761186434863
0.24458192399848522
-0.3542312413425357
-1.1901101030537617
-1.512815536870685
-1.164392823431934
-0.684246620274966
-0.5074474148717876
-0.4117412175279149
0.10650222432277445
1.0531184387805321
1.7689726678540278
1.5925792656641324
0.5963880833989669
-0.48667782202748566
-1.023614864720897
-0.8410634925220921
0.07895765337303473
1.9337619474416
5.123534420382664
9.715946411839251
14.669203452402868
18.16052549016536
19.254976026980984
18.75775577077668
17.90041383898727
16.783397503036106
14.660573441803596
11.331209800745622
7.638343717158946
4.53640807533003
2.205701808777742
0.441834885597845
-0.539971475296847
-0.26185382081840114
1.0628526964264315
2.1414729159019896
1.6223223365314645
-0.445653949373914
-2.56711673032355
-3.4179100891371594
-3.3520937441079197
-4.249666930987879
-8.13761383665921
-16.50677273576443
-31.242346415581434
-54.606984370261245
-85.03308783237776
-111.7114457727826
-115.71636090038112
-79.78842617344412
-0.882709013336024
101.20525841871432
186.01047600399144
213.2000467565067
174.2649049607644
104.23149458113042
54.49182279092301
51.56853722648738
82.24844419461272
112.9916705524567
118.12813627772161
93.40928328843438
52.219262999023556
13.083059527216957
-12.287435323132478
-23.268703873445425
-25.892952183584438
-25.879147216992997
-25.517655432215694
-24.98593152910311
-24.449438926711792
-24.366382169887626
-24.624302803780715
-24.376653811668007
-23.086659108074215
-21.39556807883532
-20.550499520817894
-20.988488885716475
-21.854740237035962
-22.141797830762464
-21.833400969140442
-21.5090648046124
-21.303998825971348
-20.801889871850513
-19.834057452683684
-18.918309122055764
-18.566172392090444
-18.422967920521533
-17.644655836834463
-16.01629326129848
-14.258061665657927
-13.212479230040728
-12.863254194798225
-12.290192707611094
-10.74516267853047
-8.503674325973405
-6.291760549229431
-4.17883968949708
-1.567276997805889
1.798979806350411
5.371534885080938
8.50994666453353
11.227947654229922
14.120330787421569
17.788922652184077
22.19994641007252
26.63338065034986
30.57855470742694
34.317887092587085
38.27888829161731
42.314557543176925
45.88716328599867
48.66180998351163
50.83920544174943
52.85425502775177
54.648804812362975
55.542688899120655
54.98315720142146
52.98795232385915
49.670917217373436
44.86503532935406
38.54550888334544
31.261075168789088
23.838172507863312
16.78717730895545
10.105442925729616
3.5475023710067086
-2.9463958126546297
-9.013656082515263
-14.142523258903974
-18.263261478338695
-21.846299120772066
-25.231919840095966
-28.117844781533776
-29.959346056146966
-30.684713409809337
-30.785503896635085
-30.801513552901483
-30.90841550005153
-31.019736061348855
-31.106135866781962
-31.254536774300636
-31.503149065099045
-31.803321917525487
-32.17175288375311
-32.73449255863268
-33.45551746345123
-33.901105329945814
-33.52323032818024
-32.1767269238872
-30.30366392226216
-28.739576434044505
-28.171002253927632
-28.556598945631592
-29.200762411115505
-29.341595648693623
-28.64878229773308
-27.42305092708163
-26.29407214686112
-25.602892875946992
-25.115741525410474
-24.29519451162249
-22.850196822364293
-21.005240555245273
-19.23589485235903
-17.896989473095008
-17.06185650101266
-16.60032530980259
-16.364422979415394
-16.151937385703434
-15.622624386723805
-14.565963256984322
-13.152126705393187
-11.727772278650772
-10.493221702001167
-9.427078008397594
-8.394534552319058
-7.372282029062814
-6.5918502617088865
-6.30208416031359
-6.439858083815782
-6.70906906385229
-6.87582246960329
-6.839450004755406
-6.485308787913375
-5.648812204857947
-4.377559556009187
-3.103516265086138
-2.3213936710742082
-2.1418026102290866
-2.292697581598428
-2.5063180692953337
-2.7502052644664357
-3.088209060114167
-3.441847576021682
-3.5255451227040595
-3.0812212784343305
-2.177701760823648
-1.1280209480069576
-0.12291313472036358
0.8852821948532867
1.9287698300279787
2.7688076916214746
2.9658412934132947
2.2462924489343803
0.772222913474429
-0.9498346342574382
-2.348122812387671
-3.010905349309305
-2.7591989118965903
-1.7351735973239149
-0.6129467624187714
-0.30771192177803475
-0.9928083915151378
-1.719117286674992
-1.430468089758285
-0.22717907173699847
0.7588933580248143
0.7979147103707758
0.3310383114026634
0.20994687366064924
0.814702955051102
1.9829350029695423
3.377856603911054
5.005348258140387
7.434651423924194
11.149679488592286
15.633320189248359
19.39308790755495
21.122208713117896
20.777574551651615
19.215020533135448
16.96709529799398
13.94234800856533
10.280250136682923
6.8488474276029
4.509809090738298
3.222465453269564
2.200245514031721
0.8598900208900337
-0.5397768653619961
-1.248685151962779
-0.9191039654175814
-0.0867942789586604
0.35692272288464855
0.17590999371147759
-0.21149888738946643
-0.800946339680304
-2.4710098465210137
-6.334471093993609
-13.292685459100216
-24.87457276684617
-43.77978444699593
-70.7910629514002
-98.94056209583184
-111.63962261711912
-89.26596959191505
-21.623995254512757
79.51856932133789
176.50944812359344
221.8966124943703
191.819043307453
108.35071633776911
25.19872013371238
-11.577096719634557
7.3390112548500905
55.90929801784468
97.00644754639113
107.14986670875946
85.42674160494336
46.95952994710105
9.969420449444963
-14.774670916005316
-26.399150539688375
-29.333790676359424
-28.04221947019976
-25.282773702897906
-22.873222112725188
-22.05630799573464
-22.82425493875663
-23.8455589370285
-23.846894921101526
-22.998434035472528
-22.48883395687247
-22.840037740896282
-23.2430216835518
-22.705953446946268
-21.420170735281474
-20.603153635269248
-20.99376856661947
-21.868991487821475
-21.851395847956066
-20.45633658366806
-18.444995553782245
-16.71266747745689
-15.26892200570679
-13.560035957241807
-11.44561974064165
-9.480090060281176
-8.3080358367948
-7.88428713610316
-7.4597726884284015
-6.423119534522844
-4.705005208598578
-2.2619851862928178
1.1927004357984168
5.672139688041828
10.45050889915782
14.569854000679356
17.912561925990815
21.27293569201707
25.274653761457525
29.75460995162492
34.171525438071136
38.15530316733549
41.73551805252261
45.19576313063569
48.627625450882455
51.822093809150125
54.678796875841485
57.422688281674084
60.204344864785035
62.58969512311677
63.71964149448527
62.93610646170862
60.11736321695028
55.56698730070347
49.687110950657164
42.83544310233559
35.500065327482574
28.286246582286207
21.486496142510493
14.831507624883734
7.96485323913195
1.0983257328989326
-5.056066849782162
-9.965623782359142
-13.72816780417315
-16.809830072242967
-19.45074415521503
-21.497071365081904
-22.816628620977948
-23.663714445811355
-24.497788890599395
-25.550918237614145
-26.68711146100165
-27.672157304348175
-28.46727894339593
-29.186423907086862
-29.82570173131031
-30.133750905868027
-29.92599786903003
-29.499981144530462
-29.359475293250316
-29.49802774465632
-29.35179057971093
-28.56693164676145
-27.53363076508834
-26.972015228466812
-27.13177622401601
-27.569479284970882
-27.658342501371756
-27.190460960010764
-26.432619114638847
-25.62818199442375
-24.64839426664682
-23.33906555799977
-21.9313828080764
-20.730476781585846
-19.664370322817355
-18.488989014388906
-17.250423133093854
-16.333204723852504
-16.091535919786917
-16.441089188715655
-16.821588214346953
-16.691607541087677
-16.068328211458578
-15.403650694498538
-14.953543373479803
-14.505450875112103
-13.733910100569778
-12.624029665196655
-11.521889224477254
-10.848687404393422
-10.727214498865997
-10.875432542538192
-10.839916382720524
-10.262037277074274
-9.104974841473016
-7.727304119968646
-6.553548787618867
-5.773213045868026
-5.396204456620195
-5.272269293264781
-5.072887874634502
-4.581016607653013
-4.013569308167279
-3.803884231458919
-4.032612947054074
-4.28461896451238
-4.142764521573702
-3.7272085078428265
-3.5492972009460124
-3.7396032823712684
-3.7566170158849346
-3.1391827959765233
-2.2412039826402554
-1.8660801560355365
-2.3064824480534014
-3.0363425364688155
-3.347147211107751
-3.0949218152179054
-2.7317709502585656
-2.658984513378477
-2.7478090295010498
-2.703231817232265
-2.672918954575889
-3.021301212621742
-3.551959667586621
-3.4769298365035537
-2.403225189976843
-1.0301364151543884
-0.4678662974505182
-0.9916852154701006
-1.8847286303047404
-2.3041907717390355
-1.7510576381134504
0.0678933417468538
3.3115976902733215
7.946014268454965
13.515793019067802
18.821173883621103
22.320677651733234
23.30741042416306
22.301942203699127
20.045874539192887
16.789720099856513
12.811825722161652
8.862280905201418
5.7107022753924195
3.5032917014984744
1.7252858635304185
-0.07762645101246801
-1.6091712576165038
-2.17810160401003
-1.7735523917338323
-1.4336103436696923
-2.162561607229249
-3.5749455725041446
-4.163892923830631
-3.132313360305164
-1.6729936606853528
-2.2538909767440694
-6.826256731227788
-16.15614602652574
-31.233156557660166
-53.98430472505234
-83.35077796763653
-109.3470098470144
-113.42210410187923
-77.93842982521925
0.9735147155037147
103.88832956787375
189.3506344402274
214.9851516259649
170.53297916056152
90.85954357505489
29.893934656688785
19.1513906970394
49.726699212717996
88.25019026988208
105.23727011351589
91.44964515217634
56.66484197365884
18.722334389693618
-8.686207063393093
-22.44261893309784
-27.273172779166202
-28.608905824122385
-28.676167246349856
-27.781763257762602
-26.7277847272586
-26.71178607234723
-27.742363920959196
-28.53288291249216
-28.19211964636614
-27.204851247984195
-26.43660020587945
-25.948206657744898
-25.138256152057963
-23.68606247874285
-22.136934706854355
-21.38049927062901
-21.53080285559761
-21.664389333764547
-20.912620356450432
-19.52549917381197
-18.424393427524198
-17.92257204906443
-17.40912627954487
-16.22417173881445
-14.417079802179623
-12.553482055094447
-10.947210106969457
-9.317358356210447
-7.306087332699581
-4.998667684904133
-2.6859043331440886
-0.4063278503344159
2.0024131254833937
4.584463042029918
7.255050002011872
10.066657583150892
13.409543528599844
17.794051282710242
23.149659833802183
28.539000148908013
33.0179700625175
36.599381717007574
40.042023035511846
43.92156177595314
48.078413666243236
51.8117380807131
54.55265293346229
56.32348101043863
57.500838973951474
58.30343138557301
58.645306826769605
58.27119372135077
56.83209497567286
53.88287556672948
48.95797075385158
41.95079130533803
33.54341733491102
24.977967889487232
17.24348964222991
10.492309084359118
4.1833891740954385
-2.180077995168023
-8.444294423017702
-13.95149142057811
-18.134558800401596
-20.887076580590396
-22.5136137487126
-23.516093674444686
-24.459793132407604
-25.770609042019196
-27.375958428235876
-28.707625797367868
-29.297782541078046
-29.225702904063056
-28.914409101732165
-28.73499276977125
-28.86074624832781
-29.27555496100082
-29.802258236380737
-30.23214809775044
-30.488147839576808
-30.553895416363154
-30.329581420706877
-29.81990848626217
-29.332795125691035
-29.194243598931127
-29.371701460359176
-29.556809662599502
-29.54139219130831
-29.377569445255475
-29.129372833302487
-28.572974682221147
-27.34477232062285
-25.527689759521966
-23.841424701528865
-22.85640112324203
-22.285608091122473
-21.43395993735772
-20.071170912216594
-18.538824171961654
-17.201969063811376
-16.220341550597485
-15.704452566639493
-15.66009223399649
-15.84933481469013
-15.86258828021273
-15.350343980007501
-14.282795944703325
-13.002112485314987
-11.942625018960184
-11.301695353524213
-10.993392094490842
-10.731856703161021
-10.13215358413839
-9.034109699164377
-7.737359797469194
-6.7528788394904815
-6.4056774773691805
-6.559725589527848
-6.586904678616558
-5.91039462807104
-4.646231482719957
-3.4427092903843746
-2.834971084190494
-2.9151049958608253
-3.39991042760996
-3.90711957357029
-4.206522574491471
-4.26833968242326
-4.1747525970658135
-3.98063522246415
-3.6479226466193175
-3.1724082786289594
-2.7146525396995695
-2.430560233445373
-2.2271965579168524
-1.9460482170772941
-1.706796849668428
-1.7732239311842144
-2.1068927061426885
-2.300952695256955
-2.0532421203197804
-1.4678363593040293
-0.6931156976410278
0.39383986353015443
1.8452455200898594
3.280975629441511
4.1349825612590605
4.214431273392707
4.01658704290806
4.3796461489496465
5.552683557482883
6.760794609621612
6.97341473748909
5.978468627060915
4.581953694900992
3.751345192418821
3.6515282713909416
3.757735506220047
3.672940555688747
3.3490868353959273
2.7485651612702098
1.807377458878358
0.7119625492966244
-0.025318216324832
0.05438448813570829
0.84188546843257
1.8089779267654835
2.7292827413164478
4.017481434918575
6.4710806595991714
10.540118965063325
15.39650586463703
19.098216575132675
20.34970810774327
19.681668080181733
18.353027282943017
16.79179978099618
14.647686473004589
11.815774424806447
8.9360980079094
6.752093509744288
5.160361548814311
3.4429213382919297
1.4113394873516132
-0.24643609045131376
-0.926146712312581
-0.9530934229939609
-1.0440594910272287
-1.244599928232055
-0.9018692433293889
0.2207711214117472
0.9944972161108744
-0.521799182677138
-5.62544949130111
-14.793433211169916
-29.26115300317255
-51.38410370773396
-80.56015666760896
-107.32343352140619
-113.30523725863978
-80.36007823228297
-3.756690761910386
98.000502491505
184.44157333721176
213.5959622617409
174.33246650451673
100.03686264853258
43.56458097945705
35.646127222867946
66.62317382518467
102.90989407275823
115.69700574829226
97.09451436825668
58.37189073968087
18.150285886307433
-10.190299680239418
-24.219490485440133
-28.993794932029836
-30.064137684588427
-29.95714232499178
-29.228442523586274
-28.38963410270952
-28.062343175970707
-28.137937249680938
-27.764663480932867
-26.49922953575174
-25.20635702293803
-25.27452565693067
-26.886275427999532
-28.596113640339578
-28.86833794854075
-27.639815561677757
-26.000629877891388
-24.65422818164732
-23.294440062963023
-21.519987787610013
-19.756638417557838
-18.857893703018235
-18.978263321626713
-19.219596660458283
-18.574726222271792
-17.032335303909903
-15.420911051670316
-14.289915242868496
-13.355119309105373
-12.017900816383207
-10.08991442045814
-7.873266490577631
-5.5144991880901095
-2.57129587104792
1.3085818386616532
5.65750742234396
9.707635956217834
13.362692154606345
17.305361466892506
22.08606064078584
27.325400401394965
32.11476542485543
35.98506396755604
39.25759336246824
42.561604060624816
46.097879082980036
49.513574038686436
52.44517892634872
54.77709060893389
56.35270079277926
56.90614837187901
56.3653912352752
54.96385578205409
53.02230963192253
50.59834068860689
47.271008740516514
42.37351469600359
35.54197872365326
27.184102024214866
18.503791982625003
10.76083969175331
4.429223787925585
-0.7134174583707733
-5.070693779628009
-9.164157947005114
-13.562051770554591
-18.374571475472937
-23.01923826425936
-26.684950123693632
-28.972927515453726
-30.18787815172886
-30.948556559807457
-31.41311298103707
-31.238850271712753
-30.416373870301875
-29.697832816879007
-29.900913571946898
-30.95467328864989
-31.943433667875517
-32.11444608328168
-31.660093429241396
-31.41841536909356
-31.83442261211855
-32.435937519625476
-32.5430517959532
-32.16028184952454
-31.730492047079792
-31.368149714634463
-30.886514734666154
-30.346127435841357
-30.067498085214947
-30.11931263333483
-30.076736397266426
-29.367757440539997
-27.920825871821762
-26.474422657629177
-25.894123077500367
-26.12532938780865
-26.22850467353981
-25.41985629090793
-23.78886735157652
-22.026750799977638
-20.64208711600498
-19.616827737894848
-18.75421477554278
-18.010996628095654
-17.446151706496238
-17.067962296582127
-16.746646343035174
-16.34301790728562
-15.916197639111237
-15.556580012599118
-15.102416441570357
-14.310754341311586
-13.271783258511812
-12.439786729272132
-12.189261256406734
-12.427664446131983
-12.667882227733847
-12.481360018193337
-11.860073317956562
-11.011191598226056
-9.942215385417265
-8.599207348620288
-7.2997766881472925
-6.554743441215083
-6.385147662643729
-6.154047935401842
-5.244977433127109
-3.8151916680463533
-2.7499021764898197
-2.771607264738817
-3.6034611452117384
-4.177615486942756
-3.7535041128506643
-2.68231798764838
-1.9020465629810686
-1.8298503159506914
-2.10502792845695
-2.3339651142355633
-2.6276106368057404
-3.246036679691886
-3.9790284849600197
-4.225274705390688
-3.674537970253157
-2.621012745804735
-1.5377370528399816
-0.5992667217199938
0.22677690065939093
0.8163200980809199
0.9006410792191171
0.49311398564358533
-0.0024241971162681786
-0.22819951438319674
-0.07889942365933722
0.5793035766965855
2.136924009990568
5.159069593323084
10.01684518345436
16.233335197923033
22.14597337356439
25.79455855550797
26.43951652634062
24.860048603653553
22.162095589063497
18.80283352775495
14.81172667989627
10.561540763819439
7.020007909407015
4.973631861957895
4.174522098198523
3.785091863277276
3.459277516025095
3.456177967037126
3.8355354171649267
3.990545629351866
3.290835494994609
2.047177006258618
1.2337491515244046
1.110519802887767
0.5529022988057954
-2.1561184755864584
-8.159986329243212
-18.112449951232577
-33.60986202102724
-56.716116082263405
-85.0640909164775
-106.9826300562136
-103.51372976393208
-58.137339372557406
30.070759609064964
136.42422645263642
214.85421726171427
224.41360148077695
162.45477629834843
71.01512112954723
6.0598853787307405
-2.4120060704711266
34.43124653642737
80.87974553801938
105.18913406232679
96.62548632925103
64.64934988842182
27.57702798174961
-0.24820540384211487
-15.036076081670789
-20.767925636980454
-22.362785190480302
-22.112961810759508
-20.738867876930644
-19.28726499938884
-18.874817372284795
-19.38668711869782
-19.627813699493256
-18.88577459188942
-17.81106755505783
-17.474441053718728
-17.9228582349147
-18.207212422161902
-17.715950005292722
-16.915534045648513
-16.603365135773135
-16.826519441832595
-16.80326027970169
-15.748702104121318
-13.722388143608235
-11.61982821426316
-10.187141374381447
-9.281607577922943
-8.346964059689844
-7.28005282368896
-6.3636997295715565
-5.534292988432888
-4.348608176075807
-2.6643373209760863
-0.8038906994544154
0.9799198179669816
2.908424719356874
5.459736096550331
8.715908853821002
12.151131343881843
15.315421694824881
18.507343412749567
22.498818626535037
27.59435782641318
33.15991301335639
38.21800971815095
42.392989356491995
46.14947027428967
50.000198966202476
53.684782593592885
56.542614156941276
58.42122225284676
59.780937515892205
61.03139698157878
61.92826226768024
61.71047628525485
59.83309006287932
56.36238206950477
51.64826938014133
45.897715437885196
39.24545549338584
32.019572542583866
24.62851792416165
17.26022364461445
9.810050889865263
2.1689089153702623
-5.213586294016967
-11.293582995567082
-15.397619793255533
-17.9995768140588
-20.151519980194887
-22.362394931188373
-24.36796630655272
-25.74910384545426
-26.460332392297282
-26.844612141492647
-27.279371280258633
-27.89151290457154
-28.597882353594407
-29.343608086080483
-30.21055524293392
-31.13689414685868
-31.702034166626227
-31.524809828970806
-30.763372006272597
-30.035050090232357
-29.87434922317097
-30.216756293124575
-30.4845346172613
-30.270897218510125
-29.74025874854132
-29.342351416611894
-29.23952330694246
-29.043314401438014
-28.314209525068257
-27.20763378057709
-26.218531865108275
-25.485907558159578
-24.79838602609614
-24.08018544976413
-23.49895992627344
-23.110713556262905
-22.632215040388
-21.822354388113425
-20.930907875492935
-20.38303727964152
-20.148629939623152
-19.729587192590365
-18.713441392036763
-17.21677253267302
-15.721840314812088
-14.531258010330113
-13.579911378271069
-12.707280217487773
-11.92917717231822
-11.43392521338343
-11.260949433952593
-11.09071380219207
-10.582191259029262
-9.77068034814665
-8.940212254568467
-8.337693495898733
-8.122320903849356
-8.284289038450778
-8.52436179567608
-8.489449571451
-8.149228779848304
-7.671072680182181
-7.075644951644575
-6.397022139246801
-5.896284919134942
-5.736725319293303
-5.714322904800679
-5.486148196871526
-4.924313959270832
-4.2506570965102535
-3.8047494990187465
-3.5837589020689036
-3.137030421053587
-2.140356405399523
-0.982929716412613
-0.3902170967847124
-0.463100723612347
-0.6032386626355903
-0.3519600369280226
0.23233122423965902
0.911686063955692
1.582965699898975
2.2507880559186493
2.769189598450004
2.75065154112467
1.9056271521034827
0.43916564817240455
-0.9892556230153471
-1.710234134729113
-1.464102563882382
-0.47506865373126916
0.8032690631014213
1.9966396494660406
2.8388863516687186
3.0173766204674877
2.29058911360122
0.8449713816478382
-0.627155872038389
-1.4204738030006059
-1.4838545578676974
-1.4148455174386045
-1.7012489927904633
-2.2289835895456447
-2.5887917719020397
-2.460729360428162
-1.5859733872835697
0.3403887892707973
3.6454187016380164
8.262170187649303
13.092106342835091
16.43710259060137
17.523320997374707
17.10953575507202
16.24015022145277
14.810202730378995
12.06931995599056
8.348976141810114
5.2123767715643785
3.7008547009045447
3.2471002383209133
2.575302927333731
1.243957261702668
-0.05563298363634406
-0.7300135278971618
-1.2090060875497528
-2.182167631633368
-3.4219861959824462
-3.926107066642758
-3.228483304981033
-2.419159839486598
-3.64129904376602
-8.585266623338148
-18.082246548511502
-33.49046961484494
-56.84060540985194
-86.6775678544249
-112.80623705264642
-117.15107321890642
-82.77285291107911
-5.988086484453521
94.57905274161413
179.22962098021546
207.24231848482896
168.57919002383727
96.79069282015679
43.61770279375622
38.01551166715646
69.22364105666281
103.98026019178401
114.58094525419263
94.11154640672846
54.52740383747818
14.7246124679778
-12.323705484903872
-24.95704705882388
-28.785459718512506
-29.475942359348707
-29.194528148638277
-27.973781733603925
-26.288489559370475
-25.285053995272044
-25.355903529248298
-25.708663687672836
-25.465196281452233
-24.655674511951545
-23.887330490820457
-23.36505426206261
-22.64408614587554
-21.397693672018136
-20.09005457101943
-19.48751046168867
-19.635194506547307
-19.77985616506518
-19.326766881292215
-18.51842580055922
-18.0119248133509
-17.905859133758785
-17.457913562750058
-15.92903435678864
-13.458485486788902
-10.85310065815214
-8.681463977618064
-6.906085596480701
-5.390078985443196
-4.2924301594922305
-3.631650834019206
-2.713240886424659
-0.5605216300561375
2.9551431767833853
6.883853428133751
10.21537710002523
12.841395609489254
15.581798372880652
19.371736041132788
24.288544146308446
29.494140589420734
34.2410993386031
38.542188695057575
42.660989518784795
46.4267679712988
49.458518787956194
51.8138696492289
53.91044578372251
55.82195110256474
57.0408776676464
56.93590228213983
55.244752196416925
52.207266023165374
48.25475883256645
43.51732796777024
37.81740310786954
31.213465069256365
24.25408289971728
17.474583422216035
10.863107215261516
4.112228752393063
-2.7264316176437813
-9.096496049135606
-14.425272635297981
-18.598587948774274
-21.90809472202099
-24.618189341595272
-26.70884295305064
-28.05127769072348
-28.745312967027456
-29.159076585473414
-29.542907838491107
-29.824273054705255
-29.96623100204145
-30.21034216624148
-30.734480553578635
-31.29306266111848
-31.46059949230429
-31.22026176415342
-31.073238557866716
-31.460259210891206
-32.198199710738955
-32.63240062182323
-32.3726186140465
-31.690929480095583
-31.04903374664629
-30.433870959327038
-29.449179085868014
-28.0765502523954
-27.094259280703668
-27.400288138198032
-28.89525652154878
-30.479810393724534
-31.15596950462834
-30.614970275122037
-28.9905811504461
-26.661619292556068
-24.17244544817288
-22.08333274310235
-20.822432941118734
-20.420116468980602
-20.425779007582612
-20.368420772264543
-20.204571033823584
-20.183721050159104
-20.385394251743467
-20.457136131592787
-19.89898826817659
-18.70334174870923
-17.504983264470933
-16.87316313197081
-16.621981552065638
-15.957191395313586
-14.198831504435471
-11.439070201269836
-8.570760025466235
-6.523925467702291
-5.584050806776617
-5.551888195364063
-6.105874152305039
-6.792580171486423
-7.0787474609210665
-6.697154613342371
-5.876406069962648
-5.103776397953182
-4.660098570463274
-4.406199404423152
-3.9707063955731208
-3.1421554267376415
-2.0826402502334296
-1.215754342109153
-0.9385581313260098
-1.2929311595158788
-1.911576698473973
-2.3711914671886443
-2.427655861724485
-1.8922715528360412
-0.6634373706706731
0.9362888433467309
2.163233536639492
2.411594849408899
1.6308354789538053
0.2067826134399482
-1.3735869686352509
-2.725485461395975
-3.503540110165749
-3.338148592539679
-2.150992436854043
-0.5021092868231252
0.690307246912372
1.0142273524383154
1.0439180485676491
1.5685508086712392
2.4793252524352645
2.9429798469614767
2.568520512270637
1.8883596295377199
1.593039432096863
1.6050503932084095
1.159559180931597
-0.13048538585417035
-1.465051684944653
-1.482196642684038
0.23439555027096837
2.544556344929525
3.9004066999378795
4.158140322413505
4.910972760209026
7.683192939125527
12.130445291571558
16.518825564203723
19.572397987539503
21.088594016563594
21.016559436421282
19.00319974562037
15.190244972677004
10.763016621053564
7.182684115744539
5.00591723314168
3.740180588648162
2.8316856065313916
2.410215244419273
2.835220032426594
3.7127920271651043
3.8768037638586526
2.6604543951915716
0.7722821654322013
-0.4572700194301438
-0.44917906929169155
-0.058047473597389515
-1.2426151767584783
-6.012490109374596
-15.981566103173119
-33.0046831526008
-58.166718728787636
-87.35688570668594
-107.54486716325871
-99.67484753949738
-48.80175687766536
42.81328955094041
146.94919915898262
216.771907443319
215.84941340166372
148.9488275222791
62.1541245160801
8.645668730611128
11.453297652944812
53.4208031459495
97.11807076054066
113.2889950647383
95.57736403075542
57.25482325075751
18.18322664522401
-8.442208106347334
-21.1066793358992
-25.114302128240695
-25.504142750825515
-24.535994107901995
-23.090821508683966
-22.142090276502618
-22.418282548642704
-23.437154331329268
-23.86458192233053
-23.002309804974388
-21.484616760541975
-20.43590490922405
-20.287154522233394
-20.59776034625066
-20.859517181862035
-21.058391851998174
-21.26845272027663
-21.09749190303036
-19.96921299279728
-17.930979425499725
-15.851540790312686
-14.544391010190408
-13.926174455046887
-13.341388606351487
-12.409744408150003
-11.237921955886177
-9.984740522163488
-8.516288045036031
-6.613610475443549
-4.395170773863766
-2.293892660619119
-0.5779988465055355
1.0706053494812489
3.4289978392829648
6.948799714593039
11.187592161249936
15.341345864304694
19.092172685565526
22.59378888263455
25.981258281866847
29.285525063717298
32.6910874694226
36.55382820266604
41.00139161352095
45.62891596316916
49.74220514285642
52.84733301027337
54.90536491848922
56.25937380454056
57.24240246037102
57.77250237843417
57.499188895386936
56.23812534195347
53.99531130763414
50.71973815467912
46.25513091422081
40.52179936700144
33.700049832323046
26.267502770840537
18.80751154051441
11.659872314550345
4.893932055247418
-1.3568268068077323
-6.791376788699839
-11.205732658437269
-14.69851324546745
-17.48637439645023
-19.63047714613814
-21.09953392029756
-22.01576219709542
-22.715887867993043
-23.509270963603782
-24.451107219995144
-25.49063797609187
-26.78010300448024
-28.507742767984553
-30.306004303301016
-31.344420520842675
-31.244499243901767
-30.44423321022382
-29.65444143909823
-29.35879021577373
-29.640223146842164
-30.136614944348196
-30.363266842961647
-30.18562563923415
-29.791964639519428
-29.311820969058243
-28.72692431828976
-28.176734703586725
-27.987790654374365
-28.136836787817472
-28.0742047220509
-27.38249520366235
-26.269280810240215
-25.16815782152169
-24.133225891206596
-22.861135176185623
-21.127272207112256
-19.07100605863159
-17.169375130913984
-15.922892240034033
-15.443728829088371
-15.355852607039349
-15.187775859879073
-14.769575669478785
-14.175419848549227
-13.503512338536776
-12.784473667360386
-12.008543722507579
-11.174798211470476
-10.167686309450552
-8.75479532994117
-7.040184701779941
-5.73332940125348
-5.581969527029761
-6.528641211515473
-7.632982811022983
-7.945737713518819
-7.3827801110430205
-6.536848352521759
-5.767694662094839
-4.964777659582184
-4.1791319492498085
-3.8550540138871123
-4.1969326755705145
-4.744933249918525
-4.888985104502504
-4.574722368649372
-4.199686051174682
-3.9108478282388037
-3.4058590565068276
-2.5452664716776185
-1.7906456710639467
-1.7550694668109368
-2.44927773429234
-3.181388802820445
-3.265016587925228
-2.758636541545878
-2.3562565689866943
-2.503443755936818
-2.8690957034040983
-2.92321146570478
-2.7182694820693385
-2.7346017726850373
-3.146949730042975
-3.5364997595878553
-3.3343978125516327
-2.2926752723088817
-0.4550613735945604
2.1064713317854555
5.507058830257241
9.854593768259274
14.626292454791157
18.56943275699259
20.59905675740959
20.704560690964545
19.65157594457185
17.86487711429433
15.123032462150091
11.42110925229195
7.524870783743599
4.285130435671313
1.8265123002391719
-0.15040926100453178
-1.5852527727369965
-2.049968338811376
-1.5488235186304262
-0.9465031395129002
-1.2110413966189941
-2.2766433064392273
-2.9991875443855913
-2.453392785071727
-1.1973787958473403
-1.1595703485794344
-4.286228752520489
-11.588349880550057
-24.105290794236904
-43.97566795215606
-71.7016148219084
-100.4268595877623
-113.9799385020008
-93.14693098054904
-27.57655971532826
72.13341547981412
170.0230916714982
219.2829304808481
194.7047403617798
116.31586696162829
36.65879814734416
0.914743278993611
17.11956803797085
59.09415608644041
92.00376741154511
95.77594529446621
71.83776008933796
35.58177586222557
3.5927131158762653
-15.979769686004083
-24.50940090916559
-27.19360716766625
-27.608272803330845
-26.817085927683788
-25.321396833750278
-24.06059997534456
-23.560177372815765
-23.28181769096745
-22.419158489825943
-21.0630074517193
-20.214831317320478
-20.552483399053322
-21.49248990548126
-21.89521094214486
-21.50175432042673
-21.075959088452375
-21.12076564341421
-21.09072522090871
-20.20577111191869
-18.628061798272213
-17.356370748867967
-17.059758441852637
-17.30079645193787
-17.006091796746972
-15.617329992783134
-13.51313454508369
-11.29287501838115
-9.064955119553234
-6.7041893822376455
-4.4502957520318525
-2.708039340031519
-1.3209865747842358
0.4657949175702415
3.1645194660545344
6.5219813712898445
10.018076595650879
13.526946330403042
17.320076930865582
21.685349473953
26.638342466319944
31.875234112665265
37.00120021124375
41.824535391475735
46.26406511989106
49.96204162806917
52.40653721734403
53.70543781748002
54.85112593810277
56.80018705984627
59.44716190693234
61.65424943634503
62.13068434579881
60.263949217811884
56.17938357677221
50.20809748162672
42.67575872126865
34.117483873861154
25.285564095203732
16.911025332398083
9.413188940237422
2.6890034829933835
-3.5597302507076245
-9.288472308018884
-14.233725626288688
-18.279836516084274
-21.44979981503247
-23.865017153026542
-25.756124643785196
-27.32411373651067
-28.61516860011742
-29.56175483139792
-30.064880544942536
-30.08221842838559
-29.856280336538372
-29.946241634009134
-30.73412410251581
-31.95365065009542
-32.89646193895734
-33.113931646725405
-32.80379068935236
-32.466593763110104
-32.35375075262237
-32.364034093669744
-32.342325328332265
-32.291765640718616
-32.294759851476805
-32.35425318201857
-32.38711609124237
-32.3607793066476
-32.34880039376394
-32.395531822586975
-32.372884313732705
-32.04952609168527
-31.345544818796007
-30.432960902396086
-29.505590986262856
-28.524435761275136
-27.316319282703255
-25.969968015216505
-24.871655984393747
-24.174089487291806
-23.522366949978775
-22.439127549033312
-20.827513684011976
-19.012422006840918
-17.404986999588168
-16.278538233650224
-15.66017958033055
-15.305147502886422
-14.921719882984569
-14.298818553664994
-13.222870833085025
-11.689633271608988
-10.239621538507597
-9.579384518227862
-9.724063800940161
-9.979162523362202
-9.82645473519105
-9.358225239928563
-8.835145175636686
-8.198119649497587
-7.191225019171093
-5.891094921619775
-4.84570891853698
-4.538220323019541
-4.880198088308366
-5.346663166608958
-5.544944245521058
-5.565438330979502
-5.702329715629293
-5.940261166650148
-5.900751877538968
-5.280123684929679
-4.2480976947852795
-3.3002455369418064
-2.6954837274192176
-2.271843895414137
-1.8560525796445293
-1.5319077776354142
-1.3866051302938676
-1.2147451668990796
-0.6886894016475706
0.10759597382439856
0.5060609078485723
-0.032767777632350725
-1.1011488069504158
-1.6046474547473246
-0.9233223444126697
0.3633413028944775
1.192713428482727
1.3376209557636622
1.3981588832664726
1.599967807533708
1.5357528124636473
1.1426988577029342
0.9287368845422684
1.1593009603270423
1.6961724471360995
2.523184722578196
3.889837824497862
6.244112023784383
10.043033587988127
15.010802566583108
19.680350856738784
22.397384273690054
22.851899551523594
22.077158924301337
20.97597708723728
19.43075531528086
16.910528582589713
13.473148887360637
9.934492976909505
7.2103247723365005
5.623217797756979
4.854703086259689
4.5131344416691945
4.488535175369868
4.643806928451405
4.521127359975749
3.7839246735607652
2.9028564817366806
2.8471076500658894
3.7669756647368873
4.241372119327497
2.0928943094664647
-4.195557143876903
-15.37172281913139
-32.719623122874104
-57.66014552340494
-87.34456311051082
-110.09045595958376
-107.45215202047865
-64.05403323004883
20.14689354686285
121.68574711983365
197.86719304660693
210.87552435825887
159.26357193579
83.91845607102945
36.00836809993385
37.54676589397262
71.52368532520867
103.54700162151124
108.98276543355868
84.8716812912118
45.35082526447707
8.90493494915666
-13.533229127154705
-22.27475222128923
-23.774401449383006
-23.59801293195808
-23.610369804973203
-23.52420323311945
-23.287130078995506
-23.452778820499958
-23.943298408509847
-23.866115293798874
-22.96498290244117
-22.311928334613576
-23.064462979868388
-24.96464080319228
-26.490400141837547
-26.44223161507622
-25.034162186043407
-23.352652569192262
-22.06824662668286
-20.956535553409967
-19.6058008815206
-18.205759753743436
-17.330837064992274
-17.052335364578095
-16.638370823582303
-15.301767103842781
-13.064618171530963
-10.637918982708138
-8.521587411471055
-6.633383837082329
-4.833570235007672
-3.2387416687460644
-1.8304083629792105
-0.14942013077193766
2.3720905860894606
5.8343058324175585
9.723282985693347
13.37166705480696
16.56072074503972
19.586928068813297
22.73765030749699
26.000459342532615
29.428592726360343
33.382812920289844
38.08823032746648
43.168427977995684
47.804042060363244
51.35536433989438
53.894934701187694
56.04059223775823
58.136616017567945
59.66756971989081
59.67800236705606
57.79566023372962
54.49734026672247
50.302242933921775
45.1380042898125
38.70208692257016
31.206076590426598
23.41520118176988
15.953219706728069
8.879753940900866
1.9391522821154201
-4.91710291478811
-11.228880865946442
-16.381768395723235
-20.271043762059023
-23.36272023499589
-26.014768824398118
-27.9319125989293
-28.603001130007517
-28.204271862098075
-27.572165061445542
-27.22352580566385
-26.979872200547984
-26.74310219362968
-26.979585128288036
-28.10420832963387
-29.822874328245298
-31.287952819802925
-31.716130132673033
-30.8177330696628
-28.921300393864385
-26.903523549087907
-25.719752210793175
-25.73078573332407
-26.529098674126534
-27.317069308281813
-27.39357273734002
-26.58761199934717
-25.340392852686
-24.299781033388115
-23.874562928621394
-23.976731354977765
-24.056837915856693
-23.598919755070334
-22.652857375562064
-21.706052628990744
-21.055812330028473
-20.518935862648174
-19.715336417047702
-18.564719988448097
-17.484916932274125
-16.946889048352574
-16.902091465207615
-16.791707841590007
-16.09094749136546
-14.842461453572385
-13.55921128010204
-12.576758467651407
-11.754435627261763
-10.896191269408968
-10.136942750507087
-9.691442940076335
-9.472312497479505
-9.162653964903607
-8.58893714596887
-7.967642432487803
-7.657448185626557
-7.626647958705069
-7.431216163675134
-6.765637790542942
-5.787963560291787
-4.889976896254017
-4.314432646079383
-4.013744710872379
-3.768458852245822
-3.407599044813102
-2.9220105156431466
-2.318011570680103
-1.5438055950944451
-0.8264914602555866
-0.7737991028101535
-1.7000459678913207
-3.0556675018898596
-3.7983808581004466
-3.3230768758779803
-2.091661584537428
-1.2368443356231513
-1.364836049836306
-1.9767055571172623
-2.1956928710181085
-1.659775769309992
-0.6033673302882359
0.4128661824028677
0.7636085856241108
0.20504838292939354
-0.8892739357003399
-1.906578198439702
-2.4569999291572096
-2.4528141554058425
-2.0242983153175773
-1.3174153184319644
-0.2734630672773086
1.2920209378739624
3.724043393732837
7.5666697212728735
12.762996933942413
17.96082973980045
21.40046130904988
22.45156674408683
21.722566340065086
19.743041961189228
16.424640908270895
12.032015780600885
7.753691669356338
4.79823829492098
3.3052543369182135
2.500115663636538
1.7693983503246544
1.1798977784443219
0.9252906404353829
0.6530666944569914
-0.32039027367208917
-2.0110962105046166
-3.3555389528279793
-3.3136490055565853
-2.3162092508644485
-2.2289401283185177
-4.924928085296003
-11.380259213620121
-22.553687405897886
-40.492122382940686
-66.20462377747604
-94.30257787975867
-110.2121895593833
-94.82002626353218
-35.23047680247572
62.531754619848954
166.00786870596949
226.80759004536776
212.33118488462742
134.1737096740998
42.49154924618125
-10.666675765711613
-5.788781586699011
37.9268225689348
83.33077573623633
102.07648806895533
87.89260576353334
53.141475222063356
16.47967260077105
-9.33304683165345
-22.158723634871638
-26.492791842098047
-27.041034973738395
-26.09152040216445
-24.660917188048757
-23.695967296163914
-23.673635380419846
-24.05216113785133
-23.91383989290029
-23.133868201021315
-22.495101470062657
-22.62499897405596
-23.287443822190916
-23.806307499497656
-23.873532083416848
-23.783403253953868
-23.855164756763443
-23.82518586041526
-23.154833777753822
-21.84855963571557
-20.516730729491258
-19.53219498155671
-18.479607190203406
-16.75264329935073
-14.476047807949893
-12.361031695169121
-10.775775070789642
-9.416878998421902
-7.841519463587342
-5.992329896428963
-4.103007196730385
-2.1959354037290004
0.12499381129169879
3.2561393951632684
7.101082846988901
11.159740368696271
15.055324135798493
18.914980118557725
23.173209535968397
27.94796564819265
32.782807164121564
37.07771619055498
40.74095913585678
44.290671779147424
48.0427669007458
51.544047261611766
54.198501515908255
56.02579011173138
57.49015667268495
58.76180348668749
59.389793559445934
58.761355373871254
56.64565499646716
53.17781847742698
48.50962724556588
42.67648228525075
35.83263372009286
28.403797454751267
20.84051756818305
13.366594288374111
6.103561519646027
-0.7353275619165758
-6.879612012387957
-12.052744843632624
-16.08230968069087
-19.133668754803494
-21.622356778347925
-23.83186304822803
-25.78065227924803
-27.382678862423667
-28.56973045203282
-29.325106737416345
-29.718037575056144
-29.879774725927653
-29.95075612598648
-30.07615062479862
-30.386537045201614
-30.905998115194556
-31.47164306866236
-31.81590531009988
-31.78369427675394
-31.46141530643175
-31.051060311766385
-30.659695728903266
-30.363668878660818
-30.35757048902017
-30.759336383952004
-31.322498997087127
-31.54423538649039
-31.118003943940487
-30.18459241050791
-29.073940734112952
-27.908724410407448
-26.53771899720398
-24.82540984578155
-22.972206705761877
-21.46983504251795
-20.69516652695277
-20.592437068780754
-20.668001078529127
-20.285653812297838
-19.192973836473133
-17.77717538815891
-16.67149462943738
-16.169261262310297
-16.062408891277897
-15.950721308655073
-15.60728500541629
-14.998753677667384
-14.082861491623309
-12.795413939799436
-11.291274542771944
-10.047757910357952
-9.476963133801144
-9.469090304160424
-9.531237869037433
-9.262652183314662
-8.598614298701479
-7.77659221909086
-7.06858809480732
-6.498034288604735
-5.968254662022245
-5.597354241380306
-5.618022689052963
-5.907516066930816
-5.9282588390095965
-5.313018258606678
-4.322689425957204
-3.5615144156872596
-3.327877912695012
-3.379425834774891
-3.3446490430184364
-3.204305098261431
-3.213570837002967
-3.4364944371815813
-3.5541468591461003
-3.2282946024205366
-2.5419596556397908
-1.8622398220950587
-1.3439273845764728
-0.8225903211724557
-0.228767151345866
0.06615168054955989
-0.3949330916358813
-1.397584167877908
-2.0059581646240288
-1.489976275678992
-0.11135999354425619
1.2254395747705846
1.9586418362305833
2.245197923822133
2.557612477033762
3.3598981887465857
5.113933119603012
8.152463146607417
12.411426812666729
17.314490237130087
21.7120585518756
24.211118889069898
24.312863891837925
22.976530470989932
21.377262236588326
19.524769051612143
16.662422646503046
12.6653664400443
8.518954603899804
5.299182117633904
3.069355129484653
1.2239003408978055
-0.45648435862462455
-1.570280244489252
-1.7827405346160927
-1.506918181857091
-1.5738941783324527
-2.1827253039983177
-2.602507315596388
-2.16653898080261
-1.4759765401788147
-2.2939512691391206
-6.202973707736647
-14.190366791926644
-28.067009506046862
-50.50094803336823
-80.55135809710842
-108.08931486800972
-114.37115440244048
-81.16055556962309
-3.606550134573503
99.79009816444083
187.93672473347092
217.47945508999854
175.66948982976714
95.11589306299385
29.983133531268535
14.526457763032502
42.814126765304096
82.47605702770763
102.73480591382133
92.22619237699008
59.29938330736441
21.456576629371916
-7.092152004184388
-22.194007196108988
-27.641365447808532
-28.638204020914408
-27.96721569760936
-26.660868668288433
-25.627342806023854
-25.590223562963867
-26.255116272046045
-26.43066659578491
-25.247060746222612
-23.16098066040608
-21.536956901962952
-21.19925416210181
-21.630756355124788
-21.77392688821733
-21.35258188663559
-20.97282928167833
-21.037084064612245
-21.117400883982587
-20.631860645018296
-19.707470779381612
-18.891570274425227
-18.230254563424122
-17.152448424025582
-15.351648179285514
-13.41055125684614
-12.162798764142337
-11.547972430509837
-10.51162597788282
-8.149360974167292
-4.682021537884854
-1.0925613684559932
1.991986187609954
4.803272009636914
7.880430539637501
11.303867121161378
14.792342054074311
18.39602355772408
22.563380140139877
27.482381203196056
32.71792858346136
37.59839305397832
41.863873144275324
45.8219302266509
49.7948002366073
53.58967830620827
56.71122671507147
58.988432081890764
60.74162404795538
62.2567562187034
63.27317746317596
63.172973373268476
61.59370731693206
58.6749677466775
54.67785374692439
49.51512996428765
42.98483525771737
35.44047853913063
27.766884102253865
20.645953647295414
14.082791627235984
7.643971754711629
1.0401037467634218
-5.51058429177469
-11.379154677175086
-16.01248055284811
-19.32166645588208
-21.56109913781289
-23.00680089764697
-23.91764323229092
-24.688770850863037
-25.71544156573703
-27.039051892545867
-28.299024377644866
-29.075853160643582
-29.326806533608135
-29.415076204536767
-29.593433344733256
-29.738827996748135
-29.775837454088965
-30.0084124413632
-30.753764323663898
-31.823185766879394
-32.598802106756075
-32.59906494354379
-31.91176643054765
-31.110549341056434
-30.712833062121
-30.678613656101547
-30.531706662778863
-29.94111934182361
-29.039479130546237
-28.226334610559842
-27.634143615951032
-26.859444454704594
-25.57261187611195
-24.09054864941571
-22.912128251309298
-22.129037693543136
-21.560963149689037
-21.14964389368436
-21.023851743428363
-21.16295695414853
-21.168126851593914
-20.6384507709142
-19.683745328414982
-18.76716979482429
-18.11294110124445
-17.50147667466
-16.655181303096544
-15.680024938195345
-14.935237763167155
-14.448061575658413
-13.68233325960955
-12.169051220619313
-10.303635957852752
-9.088398100885737
-9.029748515754653
-9.59640096253823
-9.868800283645527
-9.498085970433037
-8.765414427886823
-7.944992110638081
-6.989881454919767
-5.805906321340307
-4.646558077000454
-4.038224759356709
-4.222347102852728
-4.827064680956173
-5.220811213890952
-5.094854116329312
-4.607123741203677
-4.064219227885848
-3.5915136993429915
-3.1450254621315157
-2.7754170973357173
-2.656774034023905
-2.7764438343813738
-2.784126422322248
-2.228410161520127
-0.952376755868656
0.6607315279200164
1.9186200737930055
2.4284310218084446
2.3344356625512837
1.9584707764853064
1.5342619227855028
1.1921417513040036
0.8731413164023947
0.3611450418651373
-0.4875263074866736
-1.5794219895389625
-2.557470297890207
-2.9303596087266026
-2.4273633833663917
-1.3434285964029882
-0.31021069884493246
0.37039461859770373
0.7830688689922549
0.8515949899689397
0.26829959401297354
-1.0488278449077697
-2.621731724715856
-3.5451582477681547
-3.1486163558838234
-1.6233653633141412
0.08825758462287003
1.0706283339884823
1.1112836015372223
0.607141102774574
0.0844046273093908
0.0033782824925474575
0.724381886995376
2.588727263871949
5.9708607642079565
10.706935579968768
15.47051769493042
18.47469102166111
19.12114909153084
18.366805355703818
17.139372407423537
15.205664877511094
12.132703637520143
8.590828475557725
5.913296507919776
4.5377474888270335
3.5594746561344763
2.0506811760697454
0.30484378455668293
-0.6347868022651743
-0.4534360509032755
-0.0287268250456989
-0.2379508683955155
-0.745591794344613
-0.4620044000608772
0.7251345970144734
1.1414202206004287
-1.3594124810540076
-7.882334229784954
-19.157059469075183
-37.128597503811605
-63.37183150071827
-93.50280931842512
-113.5681272529819
-104.31010214808903
-52.040928549030035
39.15304973976825
140.46924473374185
206.79718865846948
205.22374449084364
144.1434600117258
70.35913349289764
32.05297153643251
43.49427506608577
81.98837721430158
112.31134340929546
112.54032909499205
83.38363998547041
41.404956129417506
5.158154811169547
-16.05142730976225
-24.011657448777665
-25.317327550830665
-24.82250306666664
-24.116332610966317
-23.462731404210437
-23.248866863737383
-23.710131515156075
-24.37818622836903
-24.445942444206228
-23.739836300548546
-23.102737242876543
-23.449648161540775
-24.47634175679402
-24.853170701679737
-23.884553951921433
-22.429772409084084
-21.76396286780269
-21.93362370300074
-21.923779389145228
-21.252620991598857
-20.47386924214686
-19.972309700410015
-19.125093135283652
-17.075152696366974
-13.956135375332313
-10.98398190463745
-9.300987288972197
-8.879873067284379
-8.694388346033897
-7.885943686110489
-6.425774773389248
-4.567921714085452
-2.184666356243957
1.037562038285471
5.058484108649578
9.418553357648863
13.6200158139693
17.536505735033682
21.454337094318575
25.593652282234466
29.724211684830713
33.412924875925725
36.53642937511491
39.441246696511804
42.478533393106936
45.491720496679065
48.08209996893938
50.18927538491744
52.04280912139127
53.71173280098291
54.947268486350154
55.3652984406333
54.683844704464356
52.7554606183552
49.33347778999175
44.02957952925422
36.81262418502033
28.487133529744618
20.344835609224088
13.27840626222283
7.409280653843017
2.373555720528963
-2.3286790732751164
-7.079696312173295
-11.99297457346546
-16.929721118886704
-21.46883173687173
-24.88856171233798
-26.64000518384764
-26.97991774918156
-26.803043202001327
-26.811196332494127
-26.993652719064336
-26.876999325305704
-26.28428394395533
-25.762801998820876
-26.10065120675185
-27.503114716546644
-29.340820433360065
-30.699514722480796
-31.124817370614654
-30.834262802962918
-30.37071127442903
-30.027157122545557
-29.569320573518823
-28.673166652636848
-27.484861897817474
-26.509378268843335
-26.06469410313929
-26.051550021330783
-26.2004332918085
-26.308660208953146
-26.244747565306557
-25.982793469522008
-25.68485328922624
-25.551204559238677
-25.508042529065097
-25.10186702572647
-23.835088270037463
-21.734340487238057
-19.470962773991616
-17.83577034824464
-17.144140415422147
-17.057981794529134
-16.98511558914616
-16.644276045277845
-16.10883913793787
-15.488196268028133
-14.813459132803706
-14.153509859182414
-13.70289623501432
-13.64614972122608
-13.82572910887885
-13.647325694276972
-12.620018750297644
-11.011886082358389
-9.687296129796922
-9.270691884648517
-9.58869386242295
-9.875268298776856
-9.491021610235226
-8.487990261781276
-7.427002218600872
-6.6531452138265195
-6.0044365241879945
-5.275763446980212
-4.60184674204245
-4.242394244103158
-4.2308040222039045
-4.34446268055916
-4.322007793529624
-4.073289843005819
-3.654693312180216
-3.0179674587421603
-1.9392385671549839
-0.36530803176582294
1.3073647660343881
2.542899778467171
3.1599933050973084
3.3298766180032615
3.238671104464503
2.9508643952435603
2.559464178908274
2.344548158315125
2.633175013457876
3.4038569273788912
4.170376958698958
4.470876946168765
4.402125655704344
4.45294819514047
4.830778261313099
5.12286208141092
4.79064557611615
3.956128404950471
3.3187043529826106
3.28862314111706
3.6149480019616673
3.8513219645919956
3.8808447219958815
3.9189257993771554
4.148922540575688
4.4600421535573265
4.61189281986073
4.886915657605146
6.493284972495667
10.60048290717245
16.616436108658107
22.010440216758727
24.446977691582546
23.761174175864017
21.30976960669848
18.089999881614048
14.397557174906916
10.701297451630344
7.778613810373874
5.965470729105371
4.802124747884864
3.5536788174057437
1.902838211991654
0.1796173886170404
-1.0184341239634624
-1.5681575938982408
-1.955787722877255
-2.354122339326285
-2.1105180797179806
-0.8683775408387646
0.13938838784050678
-1.311460848873821
-6.63496643479471
-15.971229920109003
-29.861492198049003
-50.19100645757305
-76.68385846798941
-101.10555001087214
-106.528259261541
-74.83044811977514
0.9027325209505772
104.62311471012895
195.66534045800486
228.1796782863073
185.14242585389184
96.28416952309144
17.75864098694201
-9.259971314763368
16.270511734799143
63.38103494514454
96.67745620020987
98.42321339976561
72.61024635432278
35.707349467312056
3.892349597321476
-15.475648757713985
-24.011737234598893
-26.567822174247546
-26.43205234123832
-24.968947858274227
-23.297524264263036
-22.68570300499556
-23.48870355643513
-24.635829187876475
-24.859984722276565
-24.245270066286647
-23.85532007270795
-24.01984886082564
-23.931197349586743
-22.993897999116584
-21.770522608485123
-21.279575047324165
-21.743101114497726
-22.357257349587922
-22.24109944367907
-21.36603865044893
-20.346714685025944
-19.456535723278193
-18.289013728280988
-16.482646615999922
-14.3958471964234
-12.815263837520275
-12.06935971492464
-11.536198182320591
-10.177521720519742
-7.573988659311334
-4.1676747226056685
-0.567018704570058
3.0015595743416985
6.592730851751219
10.208521478227839
13.762511383725116
17.350954291088545
21.260001499785155
25.5961769804931
30.111330863255006
34.40202587880606
38.203658107522266
41.55036420964191
44.685983975257976
47.78405028592292
50.777647703596756
53.55733989396036
56.2148854587836
58.76486441314628
60.61170705146869
60.755003413746245
58.78929474318427
55.29359729694382
50.95546139327636
45.755265783412234
39.33710591300064
31.88573629994016
24.251697913412432
17.158144083650015
10.50733763873453
3.6415349523165284
-3.6887185561723776
-10.752386582943505
-16.431667176433074
-20.237976619190416
-22.51357827829321
-23.84176286244335
-24.61703201782311
-25.168007848585603
-25.89340706962325
-27.0378037516677
-28.465644203492303
-29.819302379843098
-30.845559391274286
-31.48954913143627
-31.785219627364576
-31.748737677383758
-31.410121524330357
-30.967759346868746
-30.798053050425224
-31.181310556173514
-31.978959365335626
-32.67080842182366
-32.83864481876609
-32.53746385271501
-32.10760732313105
-31.765382700017874
-31.490708576712546
-31.176178193477348
-30.72859741743636
-30.1241686031465
-29.37527185075978
-28.393292378926176
-27.135355242499735
-25.833015384545845
-24.76038191023016
-23.912638979931945
-23.08861787091675
-22.152438807304346
-21.114266877948225
-20.04164154518692
-18.956615332198623
-17.8313171700707
-16.789635387781324
-16.22490028105794
-16.42721704281433
-17.059171238618358
-17.217246683161207
-16.19170394976844
-14.18177566013992
-12.191353066871155
-11.114820161956331
-10.89779941728481
-10.753159286701496
-10.168936067933002
-9.357226294456707
-8.65238714973446
-7.987131800142286
-7.212478064645127
-6.459528176914397
-5.998253861936006
-5.95718700709001
-6.124572983496213
-6.093654090675472
-5.7933159028143
-5.651684081092556
-6.012965622301253
-6.614985638674824
-6.9095058008619805
-6.718102684865782
-6.295595420706864
-5.861681212640996
-5.267696978606942
-4.238567013932502
-2.966130319925208
-2.1754265733073836
-2.4079659153049944
-3.4404795165769557
-4.46935144926719
-4.785242189975465
-4.383288607759671
-3.9094472573867995
-3.9618540748468725
-4.52560349015825
-5.05427609711397
-5.015325617110948
-4.282474114952376
-3.1008970437188577
-1.9507436585999969
-1.4006794261494917
-1.7850905221242468
-2.8305750256431477
-3.622394251970036
-3.2385292858131365
-1.7207956146248327
-0.262419745750477
-0.0067188870180843185
-0.7296818556120583
-1.1713241879672363
-0.623287872437021
0.2951090521619527
0.625285272336447
0.445599755477883
0.6750322412638751
1.583092781615912
2.2317936443805424
1.69344561622411
0.34484344339247497
-0.49225078455425963
-0.04127182463459933
1.1590925852977378
2.1538573905256904
3.0667865636028777
5.073508140864299
8.717735286013676
12.901052868989241
15.93785516650659
17.20224132537646
17.20584456402746
16.337774593589174
14.309843825281087
11.028849872403521
7.399650242035385
4.73138568924526
3.5194011404276675
3.137265146591896
2.708618984324829
2.082947851265337
1.7910423289905526
2.1030736001675594
2.4896542092278873
2.2940989600200297
1.6877972298805861
1.4655247274486265
1.796041716202176
1.514900582514556
-1.1220187917703455
-7.310094285329585
-17.87292422377889
-34.443434149582686
-58.732597090218555
-87.86587212227025
-109.77813793369262
-105.75005632196702
-60.748826969525595
24.443560902344615
125.60036770609925
199.96364078937046
210.80844759969582
158.43338706932624
84.66510829660648
39.844491885805226
43.98598165486142
78.55312306037905
109.29690612850699
112.92477947988324
87.57907637527485
47.42276924187115
10.183227911099845
-13.707461915965204
-24.134872714760572
-26.56181020330099
-25.813772133564164
-23.992707767024434
-22.00341265092116
-20.819271321415158
-21.04988881374997
-22.20825056170529
-23.08233578839993
-23.00019457222379
-22.4558795557521
-22.272205869914515
-22.40200563823398
-21.97326765369302
-20.504448964798897
-18.67275797699377
-17.61809549959093
-17.656539993157264
-18.077021095791075
-18.127916207014444
-17.741077200009446
-17.243522021931923
-16.68048801100632
-15.725742781162923
-14.311943748074901
-12.954826731034636
-12.102075452373665
-11.39255699867396
-9.979013041459144
-7.565773551817305
-4.749064701534838
-2.2245223314517824
0.04692917261248608
2.749773751889225
6.329031881622725
10.262911536480324
13.609478282199582
16.299614311838738
19.260562803684973
23.25865893256661
28.094925849569748
32.97845856459534
37.5011052712051
41.93897858530219
46.52718575858889
50.87042815855793
54.36399313138452
56.94461731574456
59.015105817616906
60.64400356370767
61.21537031555309
60.14275968863386
57.71784002368752
54.79685591329276
51.77441928708315
48.21147408200441
43.34870334343174
36.860820063010856
29.170044528566123
21.01856562530596
12.851666081966705
4.863453737661644
-2.5853663566829326
-9.044201455061529
-14.25566436157543
-18.145655823381734
-20.798434931248714
-22.495366639298506
-23.627340645741747
-24.596434628687877
-25.819176098222446
-27.46998818764029
-29.091970915998814
-29.94060066207173
-29.784372405207964
-29.110264662486678
-28.608821094810857
-28.511473165843952
-28.50709679853859
-28.404791855006106
-28.569457364589553
-29.362042922754714
-30.47163805580747
-31.232488024946086
-31.391227358049395
-31.22096461932398
-30.943997573070803
-30.380004367451214
-29.35323967433537
-28.164586891868062
-27.351125834362644
-27.138908699393006
-27.30081993277235
-27.371020632060873
-26.93165599120654
-25.871866552856563
-24.44252020444851
-23.04062775846987
-21.975216072563818
-21.37347932673035
-21.137948416673694
-20.961038415980617
-20.500563651810946
-19.66285062815988
-18.68539006870916
-17.86480250174492
-17.304528752699873
-16.945344355019127
-16.685538236827142
-16.40675055012923
-15.898844024365419
-14.858364997372782
-13.145309052416314
-11.113847717208287
-9.526029784474074
-8.955334178162698
-9.244569164824991
-9.61533770339651
-9.437954121226582
-8.774955682624721
-8.014296958839683
-7.301990003739256
-6.560463886468078
-5.817743125510569
-5.278310448051958
-5.061350655102667
-5.040692314923228
-5.026211684641776
-4.9659008776011175
-4.855474487429188
-4.582233854901025
-4.074299412721382
-3.5508455090638846
-3.390939327042739
-3.6731767684142436
-3.965391490881309
-3.653096476010858
-2.514398209263489
-1.0781391011282424
-0.2732386656450233
-0.4649522165202753
-1.0199174654228926
-1.0671562798631558
-0.43251198975218275
0.40906084106742147
1.0344545036017603
1.4385944639852597
1.8072101763691775
2.204830791994553
2.5860700412647626
2.9393278295434344
3.2657198855662846
3.477552197264239
3.3915158055307204
2.890460515234551
2.1677383686184237
1.6791172094814635
1.6903410367227418
1.972904554969126
2.1155968556016918
2.052926611758629
2.0339435473285947
2.0439550740085073
1.5881688549898896
0.37278563912162055
-0.941160222034024
-1.1845512262056048
-0.034920918657114663
1.5192074829749331
2.293798510190278
2.1902630005968007
2.136466170843542
2.858566445177407
3.988514762147658
4.635906172231566
4.798138591612652
5.7298717668309855
8.525393200665684
12.672120604150457
16.527711871127252
18.951519284215102
19.887729079144854
19.625283329794907
18.193128653296412
15.529609962356652
11.968730106146529
8.428704489465407
5.812543849871441
4.165497649952453
2.8756384067372363
1.6478037511808372
0.7574742061110318
0.4065393923950297
0.28751642230663077
-0.08441876244389299
-0.7504776919444445
-1.168904825692847
-0.9492433578294666
-0.82308517672271
-2.5128849275153406
-7.477997698989353
-16.393977845378643
-30.412181550133653
-51.68118665729813
-79.55249535767919
-104.84251107398427
-109.71676317498557
-76.04327996207554
1.9704749521158291
106.78991033693612
197.15401553429285
228.3438951779529
185.70894518972682
100.66726721409393
28.63811445464868
7.804011522681282
35.911203175873894
80.66868831888402
107.9544353129136
102.62556784919377
71.16774201697062
31.476148048670957
-0.5204620852092576
-18.808149540523818
-26.038281707268087
-27.399783365719415
-26.37186462463385
-24.39345714562416
-22.397078574284432
-21.5589864617665
-22.440406010575977
-24.22748748535619
-25.532344491817376
-25.81204181411369
-25.59975294088988
-25.401545178665412
-25.03109450196851
-24.21496477964628
-23.249533396656194
-22.76074377070692
-22.901180425208537
-23.010689963715702
-22.412494727377812
-21.337229238024015
-20.55437278047905
-20.25509542256881
-19.789740516153735
-18.529569777363363
-16.67230247784572
-14.963530014511143
-13.743854436308691
-12.613787871875587
-11.025962027855996
-8.99517790223947
-7.13982705637074
-5.813941629658421
-4.274219473913819
-1.3349336552023967
3.1245274114862185
8.037270630582737
12.487814141090388
16.506221212880618
20.56162928454423
24.78958116345381
28.929297732564905
32.7826467955569
36.448867500466136
40.10669281684547
43.69963752483996
46.931982507724676
49.62305641244063
51.955385161830456
54.13966563055145
55.83428963869118
56.281139871385484
55.186877078065606
53.00190171893463
50.09843100001519
46.14330298910554
40.561221529015576
33.35857159493858
25.307085770610392
17.47638922500991
10.550421136751815
4.41240265591843
-1.4163856313316165
-6.959619635554549
-11.760155750033206
-15.534653563791716
-18.454815557261963
-20.817248898974565
-22.786633418410617
-24.52175411876118
-26.256005254655875
-28.01769714520078
-29.398655329541747
-29.896371655107963
-29.524347860322596
-28.945827831154773
-28.89981864979108
-29.510823107508436
-30.26113139776911
-30.617108222701233
-30.603293258169877
-30.705351669639448
-31.206998967991325
-31.78487875320024
-31.89138427957823
-31.397334234957686
-30.611235942829882
-29.799265967683294
-29.041432060260544
-28.414176559617584
-28.00600811924798
-27.859885594202837
-27.964512608497955
-28.11354339961361
-27.82940200555301
-26.804364380769222
-25.325313244403652
-23.85184778139205
-22.490798241889372
-21.199017958579514
-20.114457315626137
-19.465496032303214
-19.26167937478204
-19.19540988468687
-18.94103109330409
-18.481217180838097
-18.01104147900757
-17.564955331587957
-16.895093072606
-15.80068610317096
-14.523751896853504
-13.605761921215464
-13.272469644986115
-13.176092076327615
-12.814544458258444
-12.067099902409492
-11.253610008636372
-10.692672218366921
-10.304587920930194
-9.751044424710722
-8.94685353272417
-8.272715414826617
-8.137943477960151
-8.395913388437524
-8.398044941639018
-7.732071892573522
-6.682486104116768
-5.730819188978216
-4.8869480240133125
-3.8943356732746004
-2.8812851683918863
-2.3082242941287108
-2.2741895775955494
-2.253953232364287
-1.630419551008009
-0.39786139272852217
0.7717028908320358
1.2143436051909071
0.927593795000064
0.49179388053052486
0.31782419167717846
0.12124728935054296
-0.5591021030475869
-1.5612924296197248
-2.237525729953945
-2.214660469377923
-1.6947057047684488
-1.0997540786438498
-0.6655516366881022
-0.3644615219601355
-0.16958669720800867
-0.2799793677702018
-0.759477553776567
-1.0563548358956145
-0.3925810980590696
1.2661540417877282
2.963143514060805
3.747883663039723
3.767555025865335
3.9482903788132955
4.657736497319323
5.253433793408305
5.2059107910602975
5.2831865102963675
7.038276114696786
11.00944448495711
15.857585843673252
19.57432140664696
21.22436445603598
21.140263185898508
19.879839698228086
17.652027003110128
14.644639410429296
11.498502190163213
9.075692741694784
7.518062426966026
6.012726528639513
3.921595067332668
1.675349525630446
0.27585763996084456
0.21937824721090138
1.0075521247419794
1.719095868720578
2.0314633942319933
2.2834950370575973
2.436310701819002
1.5307967554962612
-1.7046137227262945
-8.2124158197502
-19.01847896974305
-36.147095279818735
-61.159661784598114
-90.04030162394116
-109.41950043214266
-100.19879557007823
-48.146768500605134
43.64731828246979
147.06856326305083
216.14224862289953
215.15344134910848
149.52662148949776
65.69066393328725
15.25771086921303
18.006389587134617
55.20814794494987
91.63393765285291
102.05737944359306
82.79811764212484
46.86785052267646
11.571322516520862
-12.31826288228795
-23.82376215464125
-27.57889909755422
-28.028814430036878
-27.197482019274453
-25.907058747222884
-25.087583532758707
-25.35170962890786
-26.106397000597646
-26.07409196193016
-24.853057327111006
-23.42830756473903
-22.879845044245336
-22.972821124097095
-22.548694629713587
-21.204739268342166
-19.84610060226366
-19.322871915465157
-19.215663853738356
-18.52011746189352
-17.094882781282397
-15.771022445211736
-15.161907099024607
-14.911568867246086
-14.176405064670266
-12.545213466153859
-10.412114718255015
-8.5099601393866
-7.0908237889773655
-5.705511689715508
-3.879178222168363
-1.6742747929682982
0.6205159953903565
2.987621942033395
5.66561717132663
8.784670769098739
12.100425066506173
15.299104226082058
18.607793176079937
22.601663864874805
27.302624061794518
32.094446444439804
36.581828528720706
40.97361695950283
45.55802454466729
50.055716197062885
53.65714248761113
55.813580134321676
56.89875403676821
57.92961695908457
59.57112753734201
61.39242999257732
62.16724219408471
60.97790733164156
57.91965852435306
53.591841228865974
48.14000501585596
41.239633581399666
32.96986176578288
24.164567254332763
15.719320522346292
7.996099292942093
1.0810993040824008
-4.866580719140273
-9.750947644442203
-13.774549862452268
-17.422345256939614
-21.05085434558112
-24.446116995822138
-27.101435941707244
-28.838572321441465
-29.86671099394753
-30.41035224025515
-30.45840770052368
-29.913361102288967
-29.022993845873945
-28.483831295981435
-28.855451160715248
-29.951645970782792
-31.071646411987874
-31.752583896830142
-32.069244512102635
-32.25064661207911
-32.256854251025906
-31.898783165558534
-31.256708941397374
-30.745831733679054
-30.696349713389914
-30.970369928003727
-31.111412264900473
-30.82956980004554
-30.24820436153963
-29.72014689239103
-29.444813074667827
-29.269811075534346
-28.86527617580618
-28.013324433432903
-26.750112159142446
-25.305582065244973
-23.85247134376744
-22.431139391214543
-21.196314223601924
-20.345082510668277
-19.718242656812144
-18.910447895815977
-17.815950617116304
-16.807500216373143
-16.355452718390872
-16.54692252045103
-16.981631700611654
-17.149049911328394
-16.91253341245559
-16.473069799063396
-15.874410374961364
-14.896502300429056
-13.526710249887984
-12.257769668186107
-11.681272369408253
-11.83004412282617
-12.15633135505156
-12.083966647180498
-11.33432575645113
-9.913006333942638
-8.12003459701339
-6.448137632383904
-5.290845816389113
-4.798050107115795
-4.844086665549394
-5.013492421125312
-4.84982415826232
-4.274616551862463
-3.706749396534985
-3.6685074641322113
-4.23927138686764
-4.976832600827453
-5.393042985689672
-5.3525140759862575
-4.988569774891802
-4.4340343837195775
-3.7051658942769605
-2.8125338067560532
-1.9742917860409583
-1.5240449264674052
-1.4493957025286477
-1.226874564346925
-0.3554704942470215
0.9687782222708714
1.9596913533847287
2.151905928496213
1.9418603972946475
1.9564047553223562
2.078780469713636
1.6430309046607243
0.575500537204543
-0.39515317129593486
-0.7060614695495777
-0.5399931984784798
-0.48114486339458784
-0.8917657526942082
-1.5454656350168878
-1.7920607995787972
-1.1925059269621183
0.013497591725127989
1.2202144747845634
2.1567274444235425
2.934379984696381
3.428599907752126
3.251351773149399
2.5412727860480953
2.134698685396108
2.5371193875908498
3.0714017772881963
2.553854019353727
0.8290630896672698
-0.7740544520291626
-0.777874004422445
0.8463315568071392
2.849837022752066
4.442529946467469
6.208205081349989
9.023594196847837
12.603922112655068
15.660187425761293
17.376526115648932
18.103573925659347
18.417583515790263
18.10589757192842
16.459822448358878
13.376034244302588
9.899171793978994
7.397494804455283
6.202456815364775
5.48231138967357
4.5296224978207515
3.65524803097916
3.495858220268837
3.858386651500929
3.857813209516831
3.1152408989908946
2.242587544484613
1.9433253545284772
1.949209606139261
1.0172199252255898
-2.3205858744634145
-9.462822884701426
-22.389753044297073
-43.68374847740646
-73.32087685057596
-103.25927974517764
-116.28209246369937
-93.43561326781118
-26.165678427913104
73.26137642406759
169.2090007538788
217.2900805468163
195.6731802828271
127.0274964151713
63.02537816268181
42.53298453802395
64.96385256114448
100.09430726489563
116.66679836330911
102.30380183171022
65.23984798262978
23.86547807364098
-6.651437860874889
-22.000075107276913
-26.721355346499536
-27.16080761601768
-26.771450472050947
-26.22172598036316
-25.59640729899782
-25.42416880642686
-25.93887691437973
-26.383410058825625
-25.810851152188462
-24.363409701838453
-23.17579174638871
-23.08135565234234
-23.78447532417993
-24.305538550915433
-24.031721055598194
-23.171308992322974
-22.257419002876645
-21.515537639957934
-20.867285609431597
-20.38871348241364
-20.353252378295863
-20.616642796399375
-20.352569670299154
-18.852124006501185
-16.459952104658377
-14.24943845342154
-12.80774863217133
-11.773161645007393
-10.495154011987028
-8.829159302334553
-7.179900440026866
-5.734429973305147
-3.9491193502508666
-1.1850130135396006
2.4615540650150423
6.455831960034117
10.593416910513032
15.018996126562442
19.763376391602463
24.492637425270992
28.755293571550958
32.56580779847627
36.42271206036079
40.60267719626169
44.772155464493366
48.32234264679778
50.96187971695592
52.98940368941094
54.834146615389066
56.284974808176976
56.54385578830504
55.21979636765136
52.81973993570595
49.98823110261162
46.66571614227134
42.276548861387866
36.52929982171385
29.814881274885174
22.782921962600962
15.735501069844679
8.679276694928747
1.7929274637217731
-4.413689741179166
-9.477880809831419
-13.485547254100817
-16.940247255128124
-20.13770375949166
-22.943384075623616
-24.975231723622507
-25.866615021462874
-25.79176761607501
-25.663295912153
-26.335947287870173
-27.79372548325411
-29.43684319447657
-30.85419562373296
-31.914886005407432
-32.412442371447966
-32.181123429424304
-31.497142500364422
-30.940788935583672
-30.805404558039612
-30.928174637239596
-31.154957212910055
-31.606745965749532
-32.305151342799704
-32.83793905651709
-32.61696828130604
-31.47476710710125
-29.93586186240078
-28.794797587004382
-28.524476705480957
-28.999111622826632
-29.588694160983486
-29.6161043159323
-28.770862613731076
-27.22312814584409
-25.525403551770143
-24.344214482042457
-24.058455626501164
-24.318588597848102
-24.146993434010763
-22.836059959853927
-20.600335648440556
-18.26961181414091
-16.602768660252213
-15.80892419187059
-15.503985047579143
-15.12923630119903
-14.4385980749971
-13.626710339395519
-13.010754533652483
-12.66070880568377
-12.436788869324069
-12.210945600327722
-11.865880543372143
-11.183997929055336
-9.92057119725279
-8.136771032417329
-6.378473946329076
-5.197314140961772
-4.5728574711225685
-4.1562673984515595
-3.9197883956321764
-4.160345375606887
-4.869911745086886
-5.481724302089989
-5.42616532127577
-4.718084860858132
-3.8361494762110566
-3.141733787664165
-2.6256772783262514
-2.246080949319591
-2.1751623883724602
-2.471899465848722
-2.734866443310439
-2.3948493102547728
-1.3797225103866548
-0.2559682789872635
0.3932364005874275
0.48860889630884363
0.22391624307498148
-0.29941435916167247
-0.8820207682578456
-1.0315982237752646
-0.34219818936162505
0.986450353952679
2.1098921811960567
2.159321727229959
1.0283659568740493
-0.48299032703320033
-1.3473746609208372
-1.2305462430450922
-0.7559228056177779
-0.6577073510213887
-0.7495260050621286
-0.1939099406039846
1.1791110197752355
2.41300427894061
2.4837749688158195
1.4179538777767307
0.20725649850242323
-0.18237441306896773
0.35042403204748784
1.2436547311516515
2.4048519543256814
4.63023917592446
8.353702391025148
12.58772110235297
15.812492853700938
17.43666471086621
17.782306724984352
17.086003121168627
15.177123377838779
12.04902896961777
8.341950130967922
4.984786997343955
2.393157700716578
0.39972570195003887
-1.0414174029129857
-1.5986321142176898
-1.1451549522096052
-0.26556728588777007
0.07453458537666935
-0.6264090436438361
-1.9069961156871913
-2.72966762327586
-2.630408645852308
-2.587452232334121
-4.47511169782925
-9.756059812498448
-19.473610430352647
-35.48231201960512
-59.34979373858603
-87.31111838498683
-106.26659058418639
-96.93240187139956
-44.31932205428784
49.03510050520163
154.41475114164302
224.3212186173055
221.56271445470026
150.57973706875507
58.13845949613222
-1.0391968835909253
-2.135600746316159
39.13824998843775
85.71404824206145
107.14313642625967
94.8532500139685
59.981735091738926
21.353172332597367
-7.116714161970644
-21.93196490825658
-26.8293172712974
-26.72624025468849
-24.68425612874221
-22.294883539383356
-20.689040222856278
-20.48883896540476
-21.35654201789815
-22.3319768154739
-22.853303238784676
-23.233161479503597
-23.88700250032941
-24.38683929243614
-23.857332777394937
-22.24750272129174
-20.629409008704027
-20.019219204220512
-20.227510714269222
-20.167173346638943
-19.1810948938012
-17.724634860774795
-16.617657582664712
-15.937746036869887
-14.96409016191589
-13.148142777047184
-10.869773338584888
-9.00039877235346
-7.793633881231184
-6.625790739673811
-4.903220075783381
-2.7289353204993594
-0.5296018830194692
1.5583492063133448
3.789446428474938
6.483207526861536
9.662786646220312
13.149423582393577
17.080135923333707
21.877129256769464
27.464842639340727
33.04867094431127
37.912109487421795
42.03179838984857
45.700115229249555
48.834512291269505
51.1159405405685
52.74090074481625
54.495160677114974
56.90804758730667
59.544909124117716
61.26892624536857
61.18150318368238
59.29449357586325
56.25310193104151
52.40079500628816
47.33324988944226
40.529519785425784
32.323729495135154
23.927722314260482
16.333644614968655
9.592028956601066
3.333362731709581
-2.422591498417038
-7.24376425729158
-10.907581680363432
-13.752932194591523
-16.30641192380415
-18.666284453377532
-20.500905437067022
-21.679289455379767
-22.52967705377482
-23.39573349740416
-24.244720732135804
-24.754175146083007
-24.689228870481173
-24.236654158264287
-23.901833385656925
-24.014250688974325
-24.503247138756496
-25.227067703114336
-26.181881378911427
-27.174051423533864
-27.774452690837798
-27.906608303631465
-27.942144631398527
-28.054417623220857
-28.018886244098308
-27.63807010803493
-26.97141733735364
-26.222126889574163
-25.573955582909456
-25.115775384064015
-24.84691503938398
-24.680866434514183
-24.513739484842915
-24.33510647408236
-24.107433256638142
-23.59775145574539
-22.65105105792158
-21.519695775056334
-20.598419303514174
-19.986786630030224
-19.474464148282408
-18.82144057271292
-18.06074697036072
-17.47061944091483
-17.141905336294162
-16.8040808762519
-16.11967616437778
-14.98617460912582
-13.703336846241557
-12.835019174806824
-12.65455881730709
-12.819060134029638
-12.793151992611083
-12.409948856517008
-11.747330952758135
-10.722810305273727
-9.319932684509638
-8.07341615423569
-7.660339699130693
-7.915465136300939
-7.872243613181007
-6.952997956719503
-5.633179766976502
-4.762647139049884
-4.614209267802435
-4.814359326090356
-4.958665487557176
-5.026062410247033
-5.174391057222678
-5.370345426037858
-5.428362430778887
-5.258738131372594
-4.95460903497448
-4.725429148630716
-4.68685920030225
-4.645096433038266
-4.215479716149772
-3.2643970317286195
-2.1440991571065426
-1.3711553481090668
-1.1573715004723883
-1.3557730443209746
-1.7525177189036527
-2.2501984167762714
-2.7612778436196814
-3.073586589114481
-3.0059989088156485
-2.646277342738636
-2.1696806532873913
-1.4276155879325476
-0.05278315593653615
1.9115625719692526
3.809379673506486
4.935830419369728
5.075881174636707
4.543012414226089
3.822905749123079
3.012948210291551
1.8202848863626073
0.4626601205622093
-0.015392359135088185
1.0237633474032317
2.7129908748967755
3.4367323670080534
2.6279561417519948
1.4183904679080772
1.2881737668772149
2.3882996978762527
3.7007110834859316
4.715409636494639
6.264373554134711
9.348109533468662
13.532701038227454
17.121980569081632
18.830503744620565
18.74480844204547
17.623632332719897
15.768569333440709
13.003786839367983
9.583391009768985
6.51850353573667
4.774061533793015
4.333980156964037
4.28412703815143
3.84742650116683
3.109743590322328
2.5838923151753503
2.2758684452753983
1.6012042787346803
0.270755096278664
-1.1797468271640694
-2.0013251441967586
-2.3552268208850506
-3.652448112251515
-7.581589703788816
-15.272248545122046
-28.12514733998868
-48.49771540559861
-76.54200994810715
-104.31172970821267
-114.52456477492225
-88.45146303047856
-18.5182089774051
81.39600027592147
174.46788198632078
216.95792701983066
189.59471353126384
117.44956892600938
52.47905638564255
32.32265575498379
55.50196433986878
91.8501479254641
110.47268668521723
98.89218321453146
64.5564183419368
24.82536919135545
-5.718932458459847
-22.515879824741265
-29.1799932184912
-31.060206554524793
-31.0893538258844
-29.953022855283578
-28.13737214786572
-26.756097219185257
-26.411401483956745
-26.373842624338817
-25.67865350571153
-24.473691269357328
-23.736645131846963
-23.937320416579013
-24.44917566182827
-24.40785239605773
-23.77469328436127
-23.1535759816696
-22.76664770223107
-22.12592413561471
-20.810665975765385
-19.204206699348067
-18.140761346514324
-17.827622050340427
-17.449943701168404
-16.1486709539915
-14.149685547420297
-12.503750287519154
-11.768351918482995
-11.311163860722894
-10.06950021543676
-7.805882383579658
-5.327362266079368
-3.37963051684852
-1.6718892218930943
0.6288742753715056
3.735447997627175
7.11724853677269
10.444289285713
14.111915399498095
18.646640981040413
23.883917649323994
29.03593999510018
33.5625393921715
37.61018191664376
41.46274379954554
45.027782926397826
48.080661784407944
50.66112087542873
53.04573962599642
55.40329539452088
57.47209625246035
58.59270105984594
58.173211303503834
56.12891694545443
52.74554866632763
48.16851273341881
42.30485524976705
35.269533854486475
27.611133343505895
20.00947231728043
12.854852000125517
6.098964256872359
-0.3632082261611297
-6.245857683369456
-11.13577773774809
-15.037170659873837
-18.291060541425967
-21.049929261424285
-23.146153447929183
-24.506861186162375
-25.397213937919684
-26.128382944697666
-26.771257425856188
-27.21471994205972
-27.34933219421332
-27.257002732854104
-27.256197158578082
-27.629050996437392
-28.2987909019397
-28.915114628580056
-29.285017222067353
-29.553095791665974
-29.89312467643334
-30.25550477788619
-30.535582770124314
-30.723906933612653
-30.75967622761834
-30.467676021379198
-29.777557046233245
-28.897987333118284
-28.21579061247419
-28.0080351335337
-28.175684622147937
-28.264452732970845
-27.778651636744346
-26.578075360954397
-25.086371117537688
-23.898193639602034
-23.07337440477537
-22.145126829861066
-20.844634923074118
-19.407685231916744
-18.143355155219584
-17.10447669196382
-16.26699501172929
-15.736871536012856
-15.613849579495218
-15.72503562805991
-15.709566009845926
-15.470875193666615
-15.315028734641404
-15.478896498212153
-15.707299000767566
-15.51537104356514
-14.812004116512838
-14.01362394327967
-13.532240803909449
-13.34573298157904
-13.061059190932985
-12.372350951516818
-11.513229079363127
-11.083088121429515
-11.253396044912913
-11.330110638006673
-10.373131470128346
-8.258352467528317
-5.921201108621373
-4.414137302651396
-3.917102202876478
-3.9268750896443074
-4.128829500183489
-4.646723073414031
-5.549285791156263
-6.47235605849816
-6.997633363823597
-7.274176850008823
-7.690063262649321
-7.998575767246121
-7.514027846209158
-6.0949626341176915
-4.332807876734908
-2.9236641275568576
-2.1547833561388825
-1.8243345212031636
-1.5546182406244746
-1.219065362161191
-0.9955890580742262
-1.0177667744405736
-1.1536404967094418
-1.181142226237304
-1.0322192485926052
-0.8100631180742408
-0.6025951430885055
-0.278057834905586
0.3216848405962016
0.8704529757190971
0.7426028899249538
-0.10604852939177456
-0.9798879381910344
-1.2351205397980831
-0.8383458198980172
-0.11622946738749995
0.7794558311765244
1.9145871829013639
3.0823130158372476
3.599385340723996
2.927320315707936
1.506761558424027
0.6769667583536201
1.4181939000626265
3.2364294890059364
4.672721957558836
4.861207095965565
4.2195999890257205
3.6827503482646247
3.6260635368563197
3.696738231041188
3.638949169046238
3.9798680944070868
5.571486240350656
8.585779905730329
12.197782080083824
15.198642059451139
16.917458554391807
17.49122063362255
17.166264153862755
15.74751109210732
13.098054061732661
9.896264021925946
7.3262657672167695
5.935699667570406
5.327184239877098
5.008792595600852
4.89941348584964
4.863696139060215
4.311452526877181
2.7224863101986356
0.6061919427474164
-0.4781351148741443
0.5345264624020094
2.6001003366314435
2.9716237702401536
-0.7147747441070692
-9.292400593966063
-23.26865500372966
-44.14326409368751
-71.90856967750449
-99.33111758428059
-110.03499505033066
-85.11065559222413
-15.333431093507869
86.79279522402803
183.61206585720015
228.49192606599888
198.81277083263632
117.99748864321356
40.32419559729874
9.828128330733243
31.338231661892937
75.52409941360592
106.34646154494517
104.96939115733451
75.5900878339388
36.01116685639155
3.253821183265689
-15.748592892159232
-23.741016701677694
-26.62175116913509
-27.997296809971942
-28.550083258849288
-28.325723753716016
-27.90974176538029
-27.56855114016596
-26.849443053691616
-25.56932947660377
-24.428661609162926
-24.324711523805348
-25.32331190336445
-26.501579328093356
-26.821701009343887
-26.139419744926748
-25.259520955557324
-24.92070684036982
-24.918173955220706
-24.448060482204106
-23.199212229136354
-21.709624430128276
-20.50277146562339
-19.350922927917512
-17.799046856204466
-16.07705794837198
-14.933955499314088
-14.54911232335153
-14.070542171280104
-12.49335241558138
-9.766184428555173
-6.749661595333629
-4.156897611179833
-1.8831193549276526
0.4885208254568516
2.9496215185341743
5.271336282849007
7.726116571620137
11.103954258725585
15.87546943608347
21.539091878423918
26.993299262396
31.598005624856285
35.65383352876276
39.73788154896637
43.917208557108445
47.759749613220215
50.93504729756701
53.64004564473434
56.25602728093145
58.662080120058945
60.12331165478216
59.9155512709425
57.971459738388916
54.747738593627844
50.58711239800895
45.51157832118257
39.53097255520229
32.86788191596352
25.83397919981414
18.630888129005022
11.34021544794208
4.124643514500007
-2.582832654903746
-8.271393903717259
-12.73496520979533
-16.186788837578444
-18.965888271715734
-21.08669770283789
-22.354544136723277
-22.992265571848513
-23.66260761975824
-24.76482524239395
-26.104538530928636
-27.209901222831125
-27.66868664564022
-27.375576546886183
-26.688486392635795
-26.19514054237677
-26.30128179143908
-27.03688688443657
-27.9862161186972
-28.413793301401533
-27.89850583239184
-26.850266919916276
-26.06214285141857
-25.903344906136756
-26.13178932076125
-26.290516785528766
-26.178814688758557
-25.950764390045258
-25.7992664260455
-25.684024927323808
-25.38942929877099
-24.792605167166794
-24.043061601021893
-23.360462390753998
-22.71916300792478
-21.983455727071576
-21.23935846545286
-20.714529894681235
-20.439567406270957
-20.117011397636634
-19.370503528351716
-18.162982579564368
-16.850788044105013
-15.753867007527111
-14.817138651499356
-13.838784693493537
-12.92927901663718
-12.478481542755029
-12.59984525549915
-12.808225565580061
-12.47880222417489
-11.51011819640295
-10.282695895161487
-9.135675136961995
-8.096887075541003
-7.077151137541358
-6.193126011556636
-5.696449030100268
-5.61313636300856
-5.641687122345367
-5.475761287175223
