timestamp_ms,value,lead_ok
576205,529,1
576209,565,1
576213,534,1
576217,501,1
576221,496,1
576225,529,1
576229,566,1
576233,538,1
576237,508,1
576241,505,1
576245,534,1
576249,567,1
576253,538,1
576257,507,1
576261,504,1
576265,532,1
576269,562,1
576273,538,1
576277,512,1
576281,508,1
576285,536,1
576289,570,1
576293,552,1
576297,528,1
576301,525,1
576305,543,1
576309,560,1
576313,553,1
576317,553,1
576321,562,1
576325,580,1
576329,594,1
576333,590,1
576337,580,1
576341,573,1
576345,571,1
576349,564,1
576353,553,1
576357,544,1
576361,534,1
576365,532,1
576369,528,1
576373,517,1
576377,513,1
576381,514,1
576385,520,1
576389,521,1
576393,516,1
576397,514,1
576401,518,1
576405,524,1
576409,528,1
576413,522,1
576417,521,1
576421,521,1
576425,526,1
576429,528,1
576433,524,1
576437,522,1
576441,523,1
576445,529,1
576449,529,1
576453,517,1
576457,488,1
576461,417,1
576465,322,1
576469,243,1
576473,214,1
576477,276,1
576481,469,1
576485,776,1
576489,1024,1
576493,1024,1
576497,1024,1
576501,1024,1
576505,885,1
576509,657,1
576513,495,1
576517,397,1
576521,366,1
576525,381,1
576529,417,1
576533,459,1
576537,489,1
576541,514,1
576545,530,1
576549,534,1
576553,525,1
576557,519,1
576561,523,1
576565,535,1
576569,541,1
576573,534,1
576577,532,1
576581,535,1
576585,545,1
576589,550,1
576593,545,1
576597,544,1
576601,547,1
576605,559,1
576609,565,1
576613,559,1
576617,557,1
576621,564,1
576625,596,1
576629,613,1
576633,585,1
576637,562,1
576641,564,1
576645,605,1
576649,629,1
576653,598,1
576657,577,1
576661,586,1
576665,632,1
576669,652,1
576673,616,1
576677,595,1
576682,602,1
576686,646,1
576690,665,1
576694,626,1
576698,602,1
576702,610,1
576706,657,1
576710,670,1
576714,624,1
576718,597,1
576722,598,1
576726,637,1
576730,648,1
576734,604,1
576738,573,1
576742,569,1
576746,605,1
576750,610,1
576754,562,1
576758,534,1
576762,533,1
576766,570,1
576770,580,1
576774,541,1
576778,519,1
576782,524,1
576786,560,1
576790,569,1
576794,534,1
576798,516,1
576802,521,1
576806,556,1
576810,564,1
576814,526,1
576818,512,1
576822,521,1
576826,560,1
576830,567,1
576834,526,1
576838,509,1
576842,519,1
576846,561,1
576850,569,1
576854,528,1
576858,509,1
576862,521,1
576866,567,1
576870,572,1
576874,532,1
576878,511,1
576882,518,1
576886,562,1
576890,571,1
576894,529,1
576898,509,1
576902,521,1
576906,567,1
576910,570,1
576914,526,1
576918,507,1
576922,518,1
576926,566,1
576930,567,1
576934,521,1
576938,505,1
576942,519,1
576946,561,1
576950,564,1
576954,524,1
576958,509,1
576962,523,1
576966,566,1
576970,565,1
576974,523,1
576978,507,1
576982,519,1
576986,562,1
576990,562,1
576994,522,1
576998,513,1
577002,531,1
577006,576,1
577010,578,1
577014,536,1
577018,521,1
577022,534,1
577026,586,1
577030,601,1
577034,576,1
577038,569,1
577042,585,1
577046,620,1
577050,608,1
577054,564,1
577058,543,1
577062,549,1
577066,582,1
577070,570,1
577074,525,1
577078,504,1
577082,512,1
577086,550,1
577090,542,1
577094,500,1
577098,487,1
577102,505,1
577106,548,1
577110,545,1
577114,505,1
577118,488,1
577122,505,1
577126,547,1
577130,541,1
577134,500,1
577138,488,1
577142,506,1
577146,550,1
577150,546,1
577154,512,1
577158,493,1
577162,493,1
577166,487,1
577170,387,1
577174,248,1
577178,183,1
577182,214,1
577186,376,1
577190,626,1
577194,912,1
577198,1024,1
577202,1024,1
577206,1024,1
577210,1006,1
577214,777,1
577218,536,1
577222,389,1
577226,377,1
577230,382,1
577234,392,1
577238,433,1
577242,483,1
577246,543,1
577250,542,1
577254,507,1
577258,490,1
577262,505,1
577266,546,1
577270,538,1
577274,505,1
577278,495,1
577282,517,1
577286,559,1
577290,547,1
577294,513,1
577298,505,1
577302,528,1
577306,573,1
577310,566,1
577314,531,1
577318,522,1
577322,543,1
577326,589,1
577330,579,1
577334,544,1
578279,504,1
578283,560,1
578287,566,1
578291,514,1
578295,494,1
578299,507,1
578303,560,1
578307,564,1
578311,509,1
578315,489,1
578319,506,1
578323,560,1
578327,561,1
578331,507,1
578335,488,1
578339,506,1
578343,561,1
578347,561,1
578351,508,1
578355,489,1
578359,506,1
578363,560,1
578367,560,1
578371,507,1
578375,488,1
578379,506,1
578383,560,1
578387,556,1
578391,505,1
578395,488,1
578399,506,1
578403,560,1
578407,555,1
578411,504,1
578415,485,1
578419,506,1
578423,568,1
578427,568,1
578431,518,1
578435,499,1
578439,513,1
578443,554,1
578447,568,1
578451,556,1
578455,554,1
578459,562,1
578463,577,1
578467,572,1
578471,555,1
578475,544,1
578479,542,1
578483,543,1
578487,533,1
578491,514,1
578495,504,1
578499,499,1
578503,504,1
578507,497,1
578511,489,1
578515,487,1
578519,489,1
578523,497,1
578527,494,1
578531,487,1
578535,486,1
578539,489,1
578543,497,1
578547,494,1
578551,486,1
578555,486,1
578559,490,1
578563,500,1
578567,497,1
578571,489,1
578575,487,1
578579,486,1
578583,487,1
578587,450,1
578591,360,1
578595,255,1
578599,195,1
578603,207,1
578607,296,1
578611,505,1
578615,806,1
578619,1024,1
578623,1024,1
578627,1024,1
578631,921,1
578635,723,1
578639,535,1
578643,441,1
578647,363,1
578651,317,1
578655,315,1
578659,358,1
578663,437,1
578667,475,1
578671,476,1
578675,471,1
578679,481,1
578683,505,1
578687,499,1
578691,481,1
578695,475,1
578699,485,1
578703,514,1
578707,512,1
578711,494,1
578715,489,1
578719,500,1
578723,528,1
578727,525,1
578731,504,1
578735,495,1
578739,508,1
578743,541,1
578747,537,1
578751,517,1
578755,509,1
578759,523,1
578763,556,1
578767,553,1
578771,531,1
578775,525,1
578779,543,1
578783,581,1
578787,577,1
578791,547,1
578795,542,1
578799,560,1
578803,597,1
578807,592,1
578811,572,1
578815,567,1
578819,585,1
578823,618,1
578827,604,1
578831,576,1
578835,568,1
578839,585,1
578843,618,1
578847,602,1
578851,569,1
578855,555,1
578859,567,1
578863,594,1
578867,567,1
578871,526,1
578875,513,1
578879,530,1
578883,561,1
578887,538,1
578891,500,1
578895,484,1
578899,497,1
578903,532,1
578907,509,1
578911,474,1
578915,466,1
578919,488,1
578923,523,1
578927,506,1
578931,478,1
578935,468,1
578939,476,1
578943,494,1
578947,486,1
578951,477,1
578955,475,1
578959,486,1
578963,519,1
578967,504,1
578971,478,1
578975,474,1
578979,494,1
578983,526,1
578987,507,1
578991,476,1
578995,472,1
578999,497,1
579003,532,1
579007,509,1
579011,480,1
579015,474,1
579019,511,1
579023,565,1
579027,488,1
579031,446,1
579035,454,1
579039,524,1
579043,566,1
579047,489,1
579051,452,1
579055,465,1
579059,536,1
579063,571,1
579067,487,1
579071,451,1
579075,468,1
579079,546,1
579083,581,1
579087,499,1
579091,462,1
579095,478,1
579099,560,1
579103,592,1
579107,506,1
579111,480,1
579115,509,1
579119,605,1
579123,638,1
579127,548,1
579131,512,1
579135,522,1
579139,600,1
579143,615,1
579147,516,1
579151,478,1
579155,487,1
579159,565,1
579163,576,1
579167,472,1
579171,440,1
579175,464,1
579179,553,1
579183,569,1
579187,471,1
579191,442,1
579195,465,1
579199,554,1
579203,567,1
579207,466,1
579211,440,1
579215,468,1
579219,560,1
579223,571,1
579227,471,1
579231,446,1
579235,470,1
579239,561,1
579243,569,1
579247,465,1
579251,410,1
579255,367,1
579259,357,1
579263,284,1
579267,164,1
579271,200,1
579275,415,1
579279,813,1
579283,1024,1
579287,1024,1
579291,1024,1
579295,975,1
579299,867,1
579303,654,1
579307,416,1
579311,315,1
579315,321,1
579319,428,1
579323,465,1
579327,408,1
579331,426,1
579335,476,1
579339,576,1
579343,572,1
579347,469,1
579351,447,1
579355,480,1
579359,580,1
579363,580,1
579367,481,1
579371,464,1
579375,496,1
579379,589,1
579383,586,1
579387,494,1
579391,480,1
579395,513,1
579399,607,1
579403,601,1
579407,508,1
579411,495,1
579415,530,1
579419,624,1
579423,616,1
579427,525,1
579431,516,1
579435,552,1
579439,644,1
579443,630,1
579447,540,1
579451,528,1
579455,570,1
579459,667,1
579463,654,1
579467,562,1
579471,552,1
579475,592,1
579479,686,1
579483,666,1
579487,573,1
579491,562,1
579495,601,1
579499,692,1
579503,672,1
579507,576,1
579511,557,1
579515,594,1
579519,678,1
579523,646,1
579527,547,1
579531,526,1
579535,555,1
579539,638,1
579543,608,1
579548,510,1
579552,494,1
579556,525,1
579560,613,1
579564,584,1
579568,489,1
579572,477,1
579576,514,1
579580,602,1
579584,570,1
579588,480,1
579592,474,1
579596,514,1
579600,603,1
579604,570,1
579608,481,1
579612,474,1
579616,514,1
579620,606,1
579624,571,1
579628,483,1
579632,478,1
579636,521,1
579640,607,1
579644,569,1
579648,484,1
579652,483,1
579656,526,1
579660,615,1
579664,572,1
579668,484,1
579672,481,1
579676,526,1
579680,618,1
579684,578,1
579688,490,1
579692,487,1
579696,533,1
579700,620,1
579704,576,1
579708,489,1
579712,486,1
579716,533,1
579720,621,1
579724,576,1
579728,493,1
579732,490,1
579736,537,1
579740,625,1
579744,577,1
579748,493,1
579752,490,1
579756,540,1
579760,627,1
579764,576,1
579768,494,1
579772,494,1
579776,542,1
579780,625,1
579784,570,1
579788,494,1
579792,501,1
579796,555,1
579800,639,1
579804,583,1
579808,502,1
579812,505,1
579816,566,1
579820,662,1
579824,619,1
579828,547,1
579832,553,1
579836,605,1
579840,680,1
579844,615,1
579848,529,1
579852,523,1
579856,571,1
579860,641,1
579864,570,1
579868,487,1
579872,486,1
579876,536,1
579880,614,1
579884,546,1
579888,471,1
579892,480,1
579896,540,1
579900,619,1
579904,552,1
579908,475,1
579912,477,1
579916,534,1
579920,614,1
579924,545,1
579928,475,1
579932,483,1
579936,543,1
579940,619,1
579944,546,1
579948,472,1
579952,469,1
579956,490,1
579960,483,1
579964,302,1
579968,165,1
579972,176,1
579976,343,1
579980,657,1
579984,904,1
579988,1024,1
579992,1024,1
579996,1024,1
580000,1024,1
580004,831,1
580008,549,1
580012,382,1
580016,378,1
580020,460,1
580024,416,1
580028,402,1
580032,457,1
580036,546,1
580040,625,1
580044,544,1
580048,474,1
580052,480,1
580056,545,1
580060,618,1
580064,541,1
580068,480,1
580072,494,1
580076,562,1
580080,629,1
580084,549,1
580088,488,1
580092,505,1
580096,577,1
580100,645,1
580104,566,1
580108,507,1
580112,519,1
580116,590,1
580120,657,1
580124,579,1
580128,522,1
580132,537,1
580136,609,1
580140,673,1
580144,589,1
580148,535,1
580152,554,1
580156,632,1
580160,705,1
580164,615,1
580168,561,1
580172,580,1
580176,656,1
580180,724,1
580184,632,1
580188,578,1
580192,593,1
580196,667,1
580200,729,1
580204,633,1
580208,577,1
580212,590,1
580216,664,1
580220,721,1
580224,618,1
580228,555,1
580232,562,1
580236,627,1
580240,674,1
580244,572,1
580248,516,1
580252,525,1
580256,597,1
580260,643,1
580264,542,1
580268,487,1
580272,500,1
580276,578,1
580280,627,1
580284,531,1
580288,481,1
580292,499,1
580296,578,1
580300,625,1
580304,528,1
580308,478,1
580312,496,1
580316,576,1
580320,622,1
580324,526,1
580328,481,1
580332,500,1
580336,581,1
580340,626,1
580344,531,1
580348,484,1
580352,502,1
580356,584,1
580360,626,1
580364,529,1
580368,487,1
580372,507,1
580376,589,1
580380,629,1
580384,529,1
580388,485,1
580392,507,1
580396,593,1
580400,633,1
580404,532,1
580408,488,1
580412,508,1
580416,594,1
580420,629,1
580424,529,1
580428,487,1
580432,508,1
580436,596,1
580440,629,1
580444,529,1
580448,488,1
580452,509,1
580456,596,1
580460,628,1
580464,528,1
580468,490,1
580472,513,1
580476,603,1
580480,634,1
580484,529,1
580488,489,1
580492,512,1
580496,604,1
580500,639,1
580504,543,1
580508,509,1
580512,532,1
580516,620,1
580520,646,1
580524,544,1
580528,516,1
580532,552,1
580536,653,1
580540,686,1
580544,588,1
580548,548,1
580552,566,1
580556,648,1
580560,665,1
580564,553,1
580568,509,1
580572,526,1
580576,609,1
580580,622,1
580584,514,1
580588,478,1
580592,499,1
580596,590,1
580600,609,1
580604,507,1
580608,476,1
580612,502,1
580616,596,1
580620,608,1
580624,500,1
580628,471,1
580632,499,1
580636,595,1
580640,608,1
580644,505,1
580648,476,1
580652,502,1
580656,596,1
580660,608,1
580664,497,1
580668,437,1
580672,382,1
580676,374,1
580680,316,1
580684,207,1
580688,257,1
580692,497,1
580696,901,1
580700,1024,1
580704,1024,1
580708,1024,1
580712,1006,1
580716,893,1
580720,668,1
580724,402,1
580728,304,1
580732,329,1
580736,461,1
580740,519,1
580744,460,1
580748,465,1
580752,506,1
580756,603,1
580760,602,1
580764,490,1
580768,465,1
580772,497,1
580776,598,1
580780,601,1
580784,501,1
580788,484,1
580792,519,1
580796,618,1
580800,616,1
580804,516,1
580808,497,1
580812,525,1
580816,622,1
580820,620,1
580824,525,1
580828,509,1
580832,545,1
580836,645,1
580840,639,1
580844,541,1
580848,523,1
580852,561,1
580856,662,1
580860,655,1
580864,559,1
580868,545,1
580872,585,1
580876,685,1
580880,677,1
580884,580,1
580888,566,1
580892,605,1
580896,709,1
580900,693,1
580904,596,1
580908,580,1
580912,613,1
580916,711,1
580920,691,1
580924,592,1
580928,574,1
580932,605,1
580936,693,1
580940,672,1
580944,564,1
580948,541,1
580952,567,1
580956,653,1
580960,627,1
580964,521,1
580968,500,1
580972,533,1
580976,622,1
580980,594,1
580984,490,1
580988,476,1
580992,513,1
580996,607,1
581000,581,1
581004,484,1
581008,471,1
581012,508,1
581016,602,1
581020,573,1
581024,478,1
581029,469,1
581033,511,1
581037,606,1
581041,572,1
581045,474,1
581049,466,1
581053,511,1
581057,606,1
581061,573,1
581065,478,1
581069,471,1
581073,516,1
581077,608,1
581081,573,1
581085,481,1
581089,477,1
581093,523,1
581097,615,1
581101,577,1
581105,484,1
581109,478,1
581113,522,1
581117,612,1
581121,570,1
581125,481,1
581129,478,1
581133,525,1
581137,620,1
581141,577,1
581145,484,1
581149,478,1
581153,525,1
581157,618,1
581161,571,1
581165,481,1
581169,476,1
581173,524,1
581177,616,1
581181,570,1
581185,485,1
581189,484,1
581193,530,1
581197,618,1
581201,568,1
581205,486,1
581209,493,1
581213,547,1
581217,637,1
581221,584,1
581225,498,1
581229,500,1
581233,554,1
581237,646,1
581241,604,1
581245,533,1
581249,542,1
581253,596,1
581257,674,1
581261,608,1
581265,518,1
581269,513,1
581273,562,1
581277,640,1
581281,569,1
581285,480,1
581289,476,1
581293,524,1
581297,605,1
581301,542,1
581305,461,1
581309,466,1
581313,523,1
581317,608,1
581321,545,1
581325,466,1
581329,466,1
581333,522,1
581337,605,1
581341,541,1
581345,464,1
581349,469,1
581353,525,1
581357,608,1
581361,542,1
581365,465,1
581369,466,1
581373,509,1
581377,541,1
581381,379,1
581385,210,1
581389,169,1
581393,256,1
581397,481,1
581401,669,1
581405,897,1
581409,1024,1
581413,1024,1
581417,1024,1
581421,894,1
581425,637,1
581429,482,1
581433,450,1
581437,466,1
581441,372,1
581445,316,1
581449,364,1
581453,478,1
581457,588,1
581461,523,1
581465,452,1
581469,465,1
581473,532,1
581477,605,1
581481,529,1
581485,465,1
581489,480,1
581493,546,1
581497,622,1
581501,547,1
581505,483,1
581509,494,1
581513,559,1
581517,632,1
581521,555,1
581525,495,1
581529,508,1
581533,580,1
581537,652,1
581541,572,1
581545,512,1
581549,526,1
581553,600,1
581557,670,1
581561,590,1
581565,529,1
581569,543,1
581573,617,1
581577,689,1
581581,608,1
581585,552,1
581589,569,1
581593,642,1
581597,715,1
581601,628,1
581605,570,1
581609,583,1
581613,655,1
581617,726,1
581621,634,1
581625,576,1
581629,588,1
581633,658,1
581637,721,1
581641,620,1
581645,554,1
581649,561,1
581653,627,1
581657,681,1
581661,582,1
581665,516,1
581669,523,1
581673,594,1
581677,646,1
581681,552,1
581685,490,1
581689,500,1
581693,570,1
581697,625,1
581701,534,1
581705,483,1
581709,498,1
581713,570,1
581717,622,1
581721,526,1
581725,474,1
581729,490,1
581733,570,1
581737,624,1
581741,528,1
581745,476,1
581749,494,1
581753,574,1
581757,625,1
581761,531,1
581765,481,1
581769,500,1
581773,580,1
581777,627,1
581781,528,1
581785,480,1
581789,499,1
581793,580,1
581797,628,1
581801,533,1
581805,486,1
581809,504,1
581813,584,1
581817,628,1
581821,533,1
581825,486,1
581829,504,1
581833,584,1
581837,625,1
581841,525,1
581845,481,1
581849,502,1
581853,588,1
581857,626,1
581861,526,1
581865,481,1
581869,499,1
581873,584,1
581877,624,1
581881,524,1
581885,483,1
581889,502,1
581893,589,1
581897,627,1
581901,526,1
581905,484,1
581909,505,1
581913,591,1
581917,629,1
581921,534,1
581925,497,1
581929,522,1
581933,610,1
581937,645,1
581941,544,1
581945,508,1
581949,542,1
581953,644,1
581957,685,1
581961,586,1
581965,546,1
581969,560,1
581973,638,1
581977,656,1
581981,546,1
581985,502,1
581989,518,1
581993,600,1
581997,620,1
582001,512,1
582005,474,1
582009,495,1
582013,582,1
582017,607,1
582021,505,1
582025,468,1
582029,493,1
582033,585,1
582037,607,1
582041,500,1
582045,466,1
582049,494,1
582053,588,1
582057,609,1
582061,506,1
582065,474,1
582069,497,1
582073,590,1
582077,606,1
582081,489,1
582085,415,1
582089,356,1
582093,346,1
582097,305,1
582101,206,1
582105,276,1
582109,542,1
582113,957,1
582117,1024,1
582121,1024,1
582125,1024,1
582129,999,1
582133,866,1
582137,649,1
582141,396,1
582145,316,1
582149,349,1
582153,478,1
582157,534,1
582161,465,1
582165,464,1
582169,500,1
582173,596,1
582177,603,1
582181,496,1
582185,470,1
582189,500,1
582193,598,1
582197,606,1
582201,506,1
582205,482,1
582209,512,1
582213,610,1
582217,615,1
582221,516,1
582225,496,1
582229,526,1
582233,622,1
582237,626,1
582241,526,1
582245,506,1
582249,540,1
582253,641,1
582257,643,1
582261,542,1
582265,522,1
582269,556,1
582273,657,1
582277,655,1
582281,557,1
582285,541,1
582289,577,1
582293,677,1
582297,675,1
582301,580,1
582305,568,1
582309,604,1
582313,701,1
582317,686,1
582321,588,1
582325,573,1
582329,608,1
582333,706,1
582337,687,1
582341,585,1
582345,567,1
582349,596,1
582353,685,1
582357,662,1
582361,554,1
582365,531,1
582369,559,1
582373,646,1
582377,620,1
582381,513,1
582385,494,1
582389,524,1
582393,615,1
582397,590,1
582401,487,1
582405,470,1
582409,507,1
582413,605,1
582417,583,1
582421,484,1
582425,471,1
582429,507,1
582433,601,1
582437,578,1
582442,481,1
582446,468,1
582450,506,1
582454,598,1
582458,577,1
582462,483,1
582466,471,1
582470,513,1
582474,607,1
582478,578,1
582482,483,1
582486,471,1
582490,513,1
582494,608,1
582498,579,1
582502,486,1
582506,476,1
582510,516,1
582514,609,1
582518,577,1
582522,484,1
582526,477,1
582530,519,1
582534,609,1
582538,573,1
582542,481,1
582546,475,1
582550,521,1
582554,613,1
582558,572,1
582562,480,1
582566,471,1
582570,516,1
582574,613,1
582578,576,1
582582,484,1
582586,480,1
582590,523,1
582594,615,1
582598,572,1
582602,481,1
582606,477,1
582610,525,1
582614,615,1
582618,568,1
582622,480,1
582626,478,1
582630,528,1
582634,618,1
582638,568,1
582642,480,1
582646,478,1
582650,530,1
582654,619,1
582658,568,1
582662,481,1
582666,478,1
582670,525,1
582674,616,1
582678,569,1
582682,489,1
582686,493,1
582690,545,1
582694,632,1
582698,580,1
582702,496,1
582706,502,1
582710,568,1
582714,667,1
582718,619,1
582722,538,1
582726,534,1
582730,579,1
582734,654,1
582738,588,1
582742,500,1
582746,496,1
582750,542,1
582754,621,1
582758,555,1
582762,469,1
582766,468,1
582770,522,1
582774,606,1
582778,542,1
582782,462,1
582786,463,1
582790,520,1
582794,601,1
582798,536,1
582802,461,1
582806,465,1
582810,524,1
582814,608,1
582818,543,1
582822,466,1
582826,471,1
582830,528,1
582834,607,1
582838,532,1
582842,426,1
582846,349,1
582850,303,1
582854,310,1
582858,229,1
582862,233,1
582866,451,1
582870,825,1
582874,1024,1
582878,1024,1
582882,1024,1
582886,1001,1
582890,844,1
582894,677,1
582898,436,1
582902,296,1
582906,312,1
582910,412,1
582914,541,1
582918,502,1
582922,457,1
582926,476,1
582930,537,1
582934,608,1
582938,526,1
582942,457,1
582946,468,1
582950,534,1
582954,608,1
582958,532,1
582962,470,1
582966,483,1
582970,549,1
582974,620,1
582978,544,1
582982,483,1
582986,496,1
582990,565,1
582994,634,1
582998,555,1
583002,494,1
583006,509,1
583010,582,1
583014,650,1
583018,569,1
583022,508,1
583026,524,1
583030,597,1
583034,666,1
583038,589,1
583042,531,1
583046,545,1
583050,620,1
583054,690,1
583058,609,1
583062,555,1
583066,570,1
583070,644,1
583074,715,1
583078,626,1
583082,567,1
583086,578,1
583090,650,1
583094,715,1
583098,620,1
583102,560,1
583106,569,1
583110,636,1
583114,688,1
583118,591,1
583122,526,1
583126,532,1
583130,597,1
583134,646,1
583138,550,1
583142,489,1
583146,499,1
583150,568,1
583154,618,1
583158,521,1
583162,464,1
583166,480,1
583170,554,1
583174,606,1
583178,512,1
583182,461,1
583186,477,1
583190,553,1
583194,605,1
583198,508,1
583202,456,1
583206,474,1
583210,552,1
583214,603,1
583218,508,1
583222,460,1
583226,475,1
583230,553,1
583234,603,1
583238,508,1
583242,461,1
583246,480,1
583250,559,1
583254,606,1
583258,508,1
583262,460,1
583266,478,1
583270,562,1
583274,607,1
583278,509,1
583282,464,1
583286,483,1
583290,566,1
583294,607,1
583298,508,1
583302,465,1
583306,484,1
583310,562,1
583314,601,1
583318,504,1
583322,463,1
583326,486,1
583330,570,1
583334,606,1
583338,506,1
583342,464,1
583346,483,1
583350,567,1
583354,606,1
583358,508,1
583362,468,1
583366,486,1
583370,569,1
583374,603,1
583378,502,1
583382,465,1
583386,488,1
583390,574,1
583394,606,1
583398,505,1
583402,466,1
583406,487,1
583410,572,1
583414,606,1
583418,506,1
583422,468,1
583426,489,1
583430,584,1
583434,619,1
583438,521,1
583442,483,1
583446,506,1
583450,594,1
583454,627,1
583458,541,1
583462,519,1
583466,545,1
583470,633,1
583474,654,1
583478,544,1
583482,500,1
583486,516,1
583490,600,1
583494,617,1
583498,509,1
583502,468,1
583506,485,1
583510,569,1
583514,586,1
583518,483,1
583522,449,1
583526,474,1
583530,565,1
583534,582,1
583538,480,1
583542,449,1
583546,474,1
583550,562,1
583554,583,1
583558,484,1
583562,456,1
583566,478,1
583570,568,1
583574,585,1
583578,486,1
583582,454,1
583586,470,1
583590,535,1
583594,488,1
583598,288,1
583602,176,1
583606,177,1
583610,328,1
583614,520,1
583618,706,1
583622,972,1
583626,1024,1
583630,1024,1
583634,1024,1
583638,822,1
583642,585,1
583646,450,1
583650,442,1
583654,413,1
583658,319,1
583662,329,1
583666,408,1
583670,544,1
583674,572,1
583678,476,1
583682,454,1
583686,481,1
583690,571,1
583694,576,1
583698,481,1
583702,461,1
583706,490,1
583710,585,1
583714,590,1
583718,496,1
583722,476,1
583726,504,1
583730,600,1
583734,604,1
583738,506,1
583742,486,1
583746,518,1
583750,615,1
583754,616,1
583758,521,1
583762,502,1
583766,534,1
583770,632,1
583774,630,1
583778,535,1
583782,519,1
583786,554,1
583790,653,1
583794,653,1
583798,560,1
583802,543,1
583806,577,1
583810,675,1
583814,676,1
583818,586,1
583822,569,1
583826,598,1
583830,689,1
583834,679,1
583838,586,1
583842,568,1
583846,601,1
583850,691,1
583854,676,1
583858,576,1
583862,549,1
583866,571,1
583870,653,1
583874,633,1
583878,534,1
583882,512,1
583886,535,1
583890,619,1
583894,594,1
583898,494,1
583902,476,1
583906,508,1
583910,596,1
583915,577,1
583919,483,1
583923,466,1
583927,499,1
583931,588,1
583935,570,1
583939,480,1
583943,468,1
583947,502,1
583951,591,1
583955,568,1
583959,476,1
583963,462,1
583967,499,1
583971,589,1
583975,569,1
583979,483,1
583983,470,1
583987,506,1
583991,595,1
583995,570,1
583999,484,1
584003,470,1
584007,506,1
584011,593,1
584015,570,1
584019,485,1
584023,476,1
584027,513,1
584031,596,1
584035,568,1
584039,480,1
584043,474,1
584047,514,1
584051,601,1
584055,569,1
584059,483,1
584063,475,1
584067,513,1
584071,601,1
584075,570,1
584079,488,1
584083,480,1
584087,520,1
584091,603,1
584095,568,1
584099,488,1
584103,485,1
584107,525,1
584111,609,1
584115,572,1
584119,489,1
584123,484,1
584127,526,1
584131,613,1
584135,573,1
584139,494,1
584143,488,1
584147,533,1
584151,619,1
584155,584,1
584159,505,1
584163,500,1
584167,545,1
584171,628,1
584175,592,1
584179,525,1
584183,536,1
584187,592,1
584191,676,1
584195,633,1
584199,547,1
584203,535,1
584207,574,1
584211,645,1
584215,595,1
584219,512,1
584223,499,1
584227,536,1
584231,609,1
584235,562,1
584239,484,1
584243,478,1
584247,523,1
584251,603,1
584255,556,1
584259,481,1
584263,477,1
584267,522,1
584271,598,1
584275,554,1
584279,484,1
584283,483,1
584287,526,1
584291,602,1
584295,556,1
584299,489,1
584303,487,1
584307,533,1
584311,605,1
584315,543,1
584319,430,1
584323,340,1
584327,288,1
584331,307,1
584335,268,1
584339,315,1
584343,560,1
584347,922,1
584351,1024,1
584355,1024,1
584359,1024,1
584363,992,1
584367,804,1
584371,644,1
584375,462,1
584379,331,1
584383,328,1
584387,400,1
584391,521,1
584395,513,1
584399,478,1
584403,488,1
584407,536,1
584411,607,1
584415,555,1
584419,490,1
584423,490,1
584427,541,1
584431,613,1
584435,567,1
584439,504,1
584443,504,1
584447,554,1
584451,622,1
584455,572,1
584459,513,1
584463,518,1
584467,569,1
584471,637,1
584475,588,1
584479,528,1
584483,530,1
584487,582,1
584491,651,1
584495,602,1
584499,546,1
584503,553,1
584507,605,1
584511,668,1
584515,618,1
584519,564,1
584523,572,1
584527,625,1
584531,690,1
584535,640,1
584539,589,1
584543,594,1
584547,645,1
584551,712,1
584555,655,1
584559,601,1
584563,601,1
584567,648,1
584571,710,1
584575,649,1
584579,590,1
584583,588,1
584587,633,1
584591,682,1
584595,621,1
584599,557,1
584603,549,1
584607,595,1
584611,646,1
584615,582,1
584619,522,1
584623,521,1
584627,568,1
584631,620,1
584635,556,1
584639,500,1
584643,500,1
584647,552,1
584651,608,1
584655,547,1
584659,495,1
584663,498,1
584667,552,1
584671,607,1
584675,545,1
584679,495,1
584683,498,1
584687,552,1
584691,603,1
584695,541,1
584699,494,1
584703,500,1
584707,555,1
584711,607,1
584715,542,1
584719,493,1
584723,500,1
584727,556,1
584731,607,1
584735,543,1
584739,495,1
584743,502,1
584747,561,1
584751,613,1
584755,546,1
584759,497,1
584763,502,1
584767,560,1
584771,608,1
584775,544,1
584779,497,1
584783,505,1
584787,561,1
584791,608,1
584795,542,1
584799,494,1
584803,500,1
584807,561,1
584811,609,1
584815,543,1
584819,497,1
584823,502,1
584827,560,1
584831,606,1
584835,540,1
584839,496,1
584843,506,1
584847,567,1
584851,608,1
584855,538,1
584859,495,1
584863,502,1
584867,565,1
584871,607,1
584875,537,1
584879,495,1
584883,504,1
584887,564,1
584891,606,1
584895,541,1
584899,499,1
584903,506,1
584907,566,1
584911,605,1
584915,541,1
584919,499,1
584923,508,1
584927,562,1
584931,600,1
584935,572,1
584939,544,1
584943,540,1
584947,548,1
584951,555,1
584955,554,1
584959,562,1
584963,580,1
584967,594,1
584971,596,1
584975,586,1
584979,580,1
584983,572,1
584987,569,1
584991,566,1
584995,554,1
584999,545,1
585003,541,1
585007,541,1
585011,537,1
585015,526,1
585019,519,1
585023,517,1
585027,521,1
585031,522,1
585035,513,1
585039,513,1
585043,516,1
585047,522,1
585051,524,1
585055,518,1
585059,517,1
585063,521,1
585067,528,1
585071,529,1
585075,523,1
585079,521,1
585083,521,1
585087,521,1
585091,499,1
585095,427,1
585099,316,1
585103,230,1
585107,211,1
585111,272,1
585115,451,1
585119,747,1
585123,1024,1
585127,1024,1
585131,1024,1
585135,1024,1
585139,900,1
585143,662,1
585147,466,1
585151,365,1
585155,355,1
585159,387,1
585163,446,1
585167,494,1
585171,522,1
585175,529,1
585179,526,1
585183,525,1
585187,524,1
585191,522,1
585195,519,1
585199,523,1
585203,528,1
585207,535,1
585211,537,1
585215,531,1
585219,532,1
585223,536,1
585227,544,1
585231,547,1
585235,544,1
585239,543,1
585243,546,1
585247,555,1
585251,561,1
585255,557,1
585259,556,1
585263,560,1
585267,568,1
585271,576,1
585275,576,1
585279,577,1
585283,582,1
585287,590,1
585291,594,1
585295,594,1
585299,598,1
585303,603,1
585307,610,1
585311,616,1
585315,615,1
585319,618,1
585323,622,1
585327,628,1
585331,630,1
585335,627,1
585339,626,1
585343,625,1
585347,630,1
585351,629,1
585355,620,1
585359,614,1
585363,607,1
585368,605,1
585372,598,1
585376,585,1
585380,577,1
585384,568,1
585388,567,1
585392,561,1
585396,552,1
585400,543,1
585404,538,1
585408,540,1
585412,537,1
585416,529,1
585420,523,1
585424,524,1
585428,532,1
585432,533,1
585436,526,1
585440,525,1
585444,526,1
585448,533,1
585452,533,1
585456,528,1
585460,526,1
585464,529,1
585468,532,1
585472,529,1
585476,528,1
585480,531,1
585484,530,1
585488,533,1
585492,534,1
585496,531,1
585500,529,1
585504,531,1
585508,536,1
585512,538,1
585516,535,1
585520,535,1
585524,536,1
585528,541,1
585532,537,1
585536,532,1
585540,532,1
585544,534,1
585548,542,1
585552,541,1
585556,534,1
585560,533,1
585564,535,1
585568,542,1
585572,538,1
585576,533,1
585580,533,1
585584,535,1
585588,542,1
585592,541,1
585596,534,1
585600,533,1
585604,535,1
585608,540,1
585612,536,1
585616,533,1
585620,534,1
585624,534,1
585628,538,1
585632,538,1
585636,534,1
585640,533,1
585644,533,1
585648,540,1
585652,542,1
585656,537,1
585660,535,1
585664,535,1
585668,540,1
585672,537,1
585676,534,1
585680,535,1
585684,536,1
585688,543,1
585692,543,1
585696,538,1
585700,536,1
585704,536,1
585708,542,1
585712,543,1
585716,545,1
585720,549,1
585724,553,1
585728,557,1
585732,556,1
585736,555,1
585740,564,1
585744,579,1
585748,592,1
585752,594,1
585756,586,1
585760,582,1
585764,580,1
585768,581,1
585772,572,1
585776,560,1
585780,552,1
585784,542,1
585788,538,1
585792,533,1
585796,526,1
585800,523,1
585804,522,1
585808,523,1
585812,521,1
585816,519,1
585820,519,1
585824,519,1
585828,521,1
585832,518,1
585836,516,1
585840,518,1
585844,519,1
585848,521,1
585852,516,1
585856,513,1
585860,516,1
585864,522,1
585868,528,1
585872,519,1
585876,489,1
585880,426,1
585884,327,1
585888,248,1
585892,221,1
585896,272,1
585900,449,1
585904,744,1
585908,1024,1
585912,1024,1
585916,1024,1
585920,1020,1
585924,856,1
585928,634,1
585932,474,1
585936,375,1
585940,348,1
585944,360,1
585948,404,1
585952,457,1
585956,489,1
585960,509,1
585964,517,1
585968,521,1
585972,514,1
585976,507,1
585980,508,1
585984,519,1
585988,532,1
585992,533,1
585996,531,1
586000,531,1
586004,532,1
586008,535,1
586012,535,1
586016,535,1
586020,538,1
586024,545,1
586028,552,1
586032,552,1
586036,553,1
586040,555,1
586044,558,1
586048,566,1
586052,566,1
586056,567,1
586060,572,1
586064,578,1
586068,584,1
586072,580,1
586076,580,1
586080,585,1
586084,594,1
586088,605,1
586092,609,1
586096,614,1
586100,616,1
586104,619,1
586108,624,1
586112,622,1
586116,624,1
586120,626,1
586124,630,1
586128,633,1
586132,627,1
586136,621,1
586140,618,1
586144,618,1
586148,616,1
586152,602,1
586156,590,1
586160,582,1
586164,580,1
586168,577,1
586172,567,1
586176,556,1
586180,549,1
586184,544,1
586188,542,1
586192,533,1
586196,526,1
586200,525,1
586204,525,1
586208,528,1
586212,521,1
586216,517,1
586220,516,1
586224,519,1
586228,524,1
586232,519,1
586236,514,1
586240,514,1
586244,519,1
586248,522,1
586252,518,1
586256,516,1
586260,518,1
586264,521,1
586268,524,1
586272,520,1
586276,517,1
586280,517,1
586284,521,1
586288,526,1
586292,522,1
586296,522,1
586300,526,1
586304,529,1
586308,529,1
586312,522,1
586316,521,1
586320,524,1
586324,531,1
586328,534,1
586332,529,1
586336,526,1
586340,525,1
586344,528,1
586348,533,1
586352,529,1
586356,526,1
586360,528,1
586364,533,1
586368,536,1
586372,529,1
586376,526,1
586380,531,1
586384,574,1
586388,610,1
586392,553,1
586396,508,1
586400,508,1
586404,556,1
586408,600,1
586412,545,1
586416,509,1
586420,518,1
586424,576,1
586428,617,1
586432,556,1
586436,518,1
586440,525,1
586444,591,1
586448,641,1
586452,581,1
586456,552,1
586460,568,1
586464,632,1
586468,662,1
586472,580,1
586476,532,1
586480,535,1
586484,600,1
586488,626,1
586492,536,1
586496,494,1
586500,502,1
586504,571,1
586508,601,1
586512,514,1
586516,476,1
586520,489,1
586524,566,1
586528,596,1
586532,513,1
586536,478,1
586540,495,1
586544,570,1
586548,597,1
586552,513,1
586556,478,1
586560,496,1
586564,574,1
586568,606,1
586572,519,1
586576,483,1
586580,496,1
586584,568,1
586588,559,1
586592,390,1
586596,254,1
586600,201,1
586604,284,1
586608,406,1
586612,542,1
586616,813,1
586620,1024,1
586624,1024,1
586628,1024,1
586632,999,1
586636,792,1
586640,579,1
586644,518,1
586648,460,1
586652,345,1
586656,328,1
586660,388,1
586664,521,1
586668,576,1
586672,504,1
586676,478,1
586680,499,1
586684,581,1
586688,594,1
586692,506,1
586696,483,1
586700,507,1
586704,593,1
586708,608,1
586712,522,1
586716,497,1
586720,521,1
586724,605,1
586728,618,1
586732,529,1
586736,506,1
586740,533,1
586744,621,1
586748,633,1
586752,543,1
586756,520,1
586760,547,1
586764,638,1
586768,652,1
586772,562,1
586776,541,1
586780,567,1
586784,657,1
586788,667,1
586792,581,1
586796,561,1
586800,589,1
586804,679,1
586808,687,1
586812,598,1
586816,578,1
586820,606,1
586824,694,1
586829,701,1
586833,605,1
586837,582,1
586841,610,1
586845,698,1
586849,693,1
586853,596,1
586857,568,1
586861,588,1
586865,666,1
586869,657,1
586873,560,1
586877,532,1
586881,552,1
586885,633,1
586889,622,1
586893,525,1
586897,502,1
586901,528,1
586905,615,1
586909,603,1
586913,509,1
586917,490,1
586921,520,1
586925,607,1
586929,598,1
586933,507,1
586937,489,1
586941,520,1
586945,606,1
586949,595,1
586953,505,1
586957,489,1
586961,521,1
586965,607,1
586969,592,1
586973,502,1
586977,489,1
586981,522,1
586985,610,1
586989,596,1
586993,505,1
586997,490,1
587001,524,1
587005,610,1
587009,594,1
587013,505,1
587017,490,1
587021,525,1
587025,615,1
587029,595,1
587033,504,1
587037,490,1
587041,526,1
587045,615,1
587049,594,1
587053,502,1
587057,488,1
587061,523,1
587065,613,1
587069,590,1
587073,500,1
587077,488,1
587081,523,1
587085,609,1
587089,586,1
587093,499,1
587097,490,1
587101,529,1
587105,615,1
587109,586,1
587113,500,1
587117,493,1
587121,529,1
587125,610,1
587129,582,1
587133,501,1
587137,495,1
587141,532,1
587145,615,1
587149,586,1
587153,502,1
587157,493,1
587161,530,1
587165,615,1
587169,586,1
587173,504,1
587177,496,1
587181,533,1
587185,615,1
587189,585,1
587193,508,1
587197,508,1
587201,547,1
587205,627,1
587209,592,1
587213,516,1
587217,514,1
587221,561,1
587225,655,1
587229,633,1
587233,561,1
587237,556,1
587241,592,1
587245,665,1
587249,622,1
587253,535,1
587257,522,1
587261,553,1
587265,620,1
587269,577,1
587273,494,1
587277,482,1
587281,518,1
587285,595,1
587289,555,1
587293,482,1
587297,478,1
587301,517,1
587305,594,1
587309,553,1
587313,477,1
587317,472,1
587321,514,1
587325,592,1
587329,550,1
587333,477,1
587337,476,1
587341,520,1
587345,597,1
587349,554,1
587353,475,1
587357,444,1
587361,411,1
587365,378,1
587369,252,1
587373,160,1
587377,224,1
587381,469,1
587385,855,1
587389,1024,1
587393,1024,1
587397,1024,1
587401,1024,1
587405,934,1
587409,655,1
587413,397,1
587417,312,1
587421,357,1
587425,466,1
587429,471,1
587433,442,1
587437,469,1
587441,523,1
587445,594,1
587449,541,1
587453,468,1
587457,469,1
587461,518,1
587465,589,1
587469,542,1
587473,480,1
587477,483,1
587481,532,1
587485,601,1
587489,549,1
587493,488,1
587497,495,1
587501,545,1
587505,617,1
587509,562,1
587513,498,1
587517,505,1
587521,557,1
587525,629,1
587529,580,1
587533,519,1
587537,525,1
587541,578,1
587545,645,1
587549,591,1
587553,534,1
587557,542,1
587561,596,1
587565,665,1
587569,614,1
587573,557,1
587577,566,1
587581,618,1
587585,686,1
587589,630,1
587593,576,1
587597,578,1
587601,627,1
587605,690,1
587609,629,1
587613,568,1
587617,569,1
587621,617,1
587625,675,1
587629,613,1
587633,549,1
587637,545,1
587641,589,1
587645,641,1
587649,573,1
587653,509,1
587657,508,1
587661,555,1
587665,610,1
587669,542,1
587673,484,1
587677,484,1
587681,534,1
587685,589,1
587689,522,1
587693,468,1
587697,476,1
587701,533,1
587705,590,1
587709,524,1
587713,471,1
587717,478,1
587721,534,1
587725,590,1
587729,521,1
587733,470,1
587737,476,1
587741,534,1
587745,592,1
587749,526,1
587753,476,1
587757,483,1
587761,537,1
587765,594,1
587769,525,1
587773,476,1
587777,486,1
587781,546,1
587785,598,1
587789,526,1
587793,477,1
587797,488,1
587801,549,1
587805,602,1
587809,533,1
587813,483,1
587817,489,1
587821,547,1
587825,597,1
587829,526,1
587833,478,1
587837,488,1
587841,548,1
587845,598,1
587849,528,1
587853,481,1
587857,490,1
587861,552,1
587865,600,1
587869,528,1
587873,484,1
587877,495,1
587881,556,1
587885,606,1
587889,532,1
587893,486,1
587897,495,1
587901,556,1
587905,602,1
587909,528,1
587913,486,1
587917,498,1
587921,562,1
587925,607,1
587929,532,1
587933,486,1
587937,495,1
587941,562,1
587945,607,1
587949,531,1
587953,488,1
587957,502,1
587961,571,1
587965,618,1
587969,542,1
587973,500,1
587977,514,1
587981,583,1
587985,626,1
587989,560,1
587993,533,1
587997,556,1
588001,627,1
588005,664,1
588009,580,1
588013,532,1
588017,538,1
588021,597,1
588025,628,1
588029,543,1
588033,496,1
588037,502,1
588041,562,1
588045,594,1
588049,510,1
588053,471,1
588057,486,1
588061,556,1
588065,592,1
588069,508,1
588073,470,1
588077,486,1
588081,555,1
588085,589,1
588089,508,1
588093,475,1
588097,489,1
588101,561,1
588105,594,1
588109,512,1
588113,475,1
588117,487,1
588121,550,1
588125,547,1
588129,386,1
588133,245,1
588137,187,1
588141,253,1
588145,367,1
588149,505,1
588153,782,1
588157,1024,1
588161,1024,1
588165,1024,1
588169,1005,1
588173,800,1
588177,573,1
588181,464,1
588185,415,1
588189,339,1
588193,344,1
588197,415,1
588201,535,1
588205,586,1
588209,510,1
588213,477,1
588217,492,1
588221,559,1
588225,580,1
588230,499,1
588234,475,1
588238,497,1
588242,576,1
588246,597,1
588250,514,1
588254,485,1
588258,502,1
588262,579,1
588266,600,1
588270,522,1
588274,499,1
588278,521,1
588282,598,1
588286,619,1
588290,541,1
588294,514,1
588298,534,1
588302,614,1
588306,636,1
588310,557,1
588314,533,1
588318,554,1
588322,631,1
588326,649,1
588330,572,1
588334,550,1
588338,572,1
588342,651,1
588346,672,1
588350,595,1
588354,572,1
588358,592,1
588362,669,1
588366,685,1
588370,606,1
588374,581,1
588378,597,1
588382,667,1
588386,677,1
588390,597,1
588394,568,1
588398,580,1
588402,644,1
588406,643,1
588410,553,1
588414,522,1
588418,536,1
588422,603,1
588426,604,1
588430,519,1
588434,493,1
588438,507,1
588442,579,1
588446,582,1
588450,502,1
588454,480,1
588458,497,1
588462,569,1
588466,572,1
588470,495,1
588474,474,1
588478,495,1
588482,568,1
588486,570,1
588490,490,1
588494,473,1
588498,494,1
588502,566,1
588506,569,1
588510,494,1
588514,471,1
588518,493,1
588522,566,1
588526,569,1
588530,497,1
588534,480,1
588538,499,1
588542,570,1
588546,572,1
588550,499,1
588554,478,1
588558,499,1
588562,572,1
588566,572,1
588570,497,1
588574,480,1
588578,501,1
588582,572,1
588586,570,1
588590,494,1
588594,476,1
588598,499,1
588602,571,1
588606,567,1
588610,494,1
588614,480,1
588618,502,1
588622,574,1
588626,571,1
588630,499,1
588634,481,1
588638,502,1
588642,574,1
588646,572,1
588650,502,1
588654,484,1
588658,506,1
588662,574,1
588666,567,1
588670,496,1
588674,483,1
588678,506,1
588682,577,1
588686,576,1
588690,512,1
588694,499,1
588698,523,1
588702,592,1
588706,585,1
588710,518,1
588714,507,1
588718,541,1
588722,622,1
588726,625,1
588730,562,1
588734,545,1
588738,561,1
588742,622,1
588746,606,1
588750,532,1
588754,512,1
588758,526,1
588762,584,1
588766,566,1
588770,493,1
588774,476,1
588778,499,1
588782,568,1
588786,555,1
588790,488,1
588794,477,1
588798,502,1
588802,569,1
588806,552,1
588810,483,1
588814,470,1
588818,497,1
588822,571,1
588826,556,1
588830,487,1
588834,474,1
588838,499,1
588842,571,1
588846,554,1
588850,481,1
588854,448,1
588858,406,1
588862,378,1
588866,279,1
588870,190,1
588874,243,1
588878,460,1
588882,822,1
588886,1024,1
588890,1024,1
588894,1024,1
588898,982,1
588902,860,1
588906,634,1
588910,447,1
588914,361,1
588918,351,1
588922,416,1
588926,423,1
588930,401,1
588934,438,1
588938,493,1
588942,568,1
588946,545,1
588950,484,1
588954,476,1
588958,508,1
588962,581,1
588966,556,1
588970,495,1
588974,490,1
588978,526,1
588982,597,1
588986,569,1
588990,506,1
588994,504,1
588998,540,1
589002,608,1
589006,580,1
589010,518,1
589014,516,1
589018,554,1
589022,626,1
589026,595,1
589030,533,1
589034,531,1
589038,570,1
589042,641,1
589046,610,1
589050,552,1
589054,552,1
589058,590,1
589062,662,1
589066,633,1
589070,577,1
589074,576,1
589078,615,1
589082,685,1
589086,652,1
589090,591,1
589094,589,1
589098,628,1
589102,701,1
589106,658,1
589110,595,1
589114,589,1
589118,622,1
589122,685,1
589126,637,1
589130,568,1
589134,557,1
589138,594,1
589142,654,1
589146,595,1
589150,524,1
589154,520,1
589158,560,1
589162,622,1
589166,566,1
589170,497,1
589174,497,1
589178,543,1
589182,608,1
589186,552,1
589190,488,1
589194,490,1
589198,538,1
589202,605,1
589206,547,1
589210,488,1
589214,490,1
589218,541,1
589222,607,1
589226,546,1
589230,486,1
589234,490,1
589238,543,1
589242,608,1
589246,546,1
589250,489,1
589254,495,1
589258,547,1
589262,610,1
589266,546,1
589270,488,1
589274,496,1
589278,550,1
589282,615,1
589286,550,1
589290,493,1
589294,499,1
589298,552,1
589302,615,1
589306,549,1
589310,494,1
589314,501,1
589318,559,1
589322,619,1
589326,552,1
589330,495,1
589334,501,1
589338,556,1
589342,618,1
589346,549,1
589350,494,1
589354,502,1
589358,560,1
589362,618,1
589366,546,1
589370,493,1
589374,502,1
589378,562,1
589382,620,1
589386,547,1
589390,495,1
589394,507,1
589398,570,1
589402,629,1
589406,562,1
589410,513,1
589414,525,1
589418,588,1
589422,644,1
589426,572,1
589430,532,1
589434,559,1
589438,632,1
589442,691,1
589446,615,1
589450,556,1
589454,557,1
589458,610,1
589462,655,1
589466,573,1
589470,513,1
589474,514,1
589478,569,1
589482,615,1
589486,536,1
589490,488,1
589494,497,1
589498,560,1
589502,608,1
589506,528,1
589510,480,1
589514,494,1
589518,559,1
589522,607,1
589526,528,1
589530,478,1
589534,490,1
589538,561,1
589542,613,1
589546,535,1
589550,488,1
589554,499,1
589558,566,1
589562,607,1
589566,509,1
589570,406,1
589574,324,1
589578,296,1
589582,303,1
589586,259,1
589590,360,1
589594,646,1
589598,1024,1
589602,1024,1
589606,1024,1
589610,1024,1
589614,962,1
589618,778,1
589622,596,1
589626,386,1
589630,316,1
589634,348,1
589638,464,1
589642,553,1
589646,506,1
589650,485,1
589654,505,1
589658,572,1
589662,608,1
589666,521,1
589670,480,1
589674,499,1
589678,572,1
589683,616,1
589687,535,1
589691,497,1
589695,513,1
589699,586,1
589703,626,1
589707,543,1
589711,506,1
589715,523,1
589719,598,1
589723,637,1
589727,557,1
589731,522,1
589735,541,1
589739,615,1
589743,652,1
589747,571,1
589751,538,1
589755,560,1
589759,636,1
589763,670,1
589767,589,1
589771,555,1
589775,579,1
589779,657,1
589783,693,1
589787,614,1
589791,581,1
589795,600,1
589799,675,1
589803,711,1
589807,624,1
589811,590,1
589815,605,1
589819,677,1
589823,706,1
589827,616,1
589831,579,1
589835,591,1
589839,661,1
589843,679,1
589847,582,1
589851,541,1
589855,549,1
589859,619,1
589863,639,1
589867,546,1
589871,508,1
589875,521,1
589879,592,1
589883,613,1
589887,522,1
589891,487,1
589895,502,1
589899,577,1
589903,598,1
589907,511,1
589911,478,1
589915,497,1
589919,579,1
589923,600,1
589927,513,1
589931,483,1
589935,500,1
589939,580,1
589943,598,1
589947,511,1
589951,484,1
589955,507,1
589959,588,1
589963,603,1
589967,512,1
589971,484,1
589975,506,1
589979,588,1
589983,601,1
589987,513,1
589991,487,1
589995,508,1
589999,589,1
590003,603,1
590007,513,1
590011,486,1
590015,508,1
590019,589,1
590023,601,1
590027,511,1
590031,487,1
590035,508,1
590039,590,1
590043,600,1
590047,512,1
590051,488,1
590055,512,1
590059,592,1
590063,600,1
590067,509,1
590071,486,1
590075,508,1
590079,592,1
590083,601,1
590087,513,1
590091,487,1
590095,508,1
590099,590,1
590103,596,1
590107,509,1
590111,487,1
590115,511,1
590119,594,1
590123,598,1
590127,513,1
590131,489,1
590135,513,1
590139,592,1
590143,596,1
590147,512,1
590151,493,1
590155,517,1
590159,601,1
590163,607,1
590167,525,1
590171,505,1
590175,528,1
590179,609,1
590183,617,1
590187,543,1
590191,536,1
590195,571,1
590199,657,1
590203,653,1
590207,557,1
590211,533,1
590215,552,1
590219,625,1
590223,614,1
590227,518,1
590231,493,1
590235,513,1
590239,590,1
590243,580,1
590247,490,1
590251,471,1
590255,498,1
590259,582,1
590263,576,1
590267,488,1
590271,470,1
590275,498,1
590279,581,1
590283,570,1
590287,486,1
590291,471,1
590295,502,1
590299,586,1
590303,576,1
590307,489,1
590311,475,1
590315,501,1
590319,571,1
590323,513,1
590327,339,1
590331,223,1
590335,199,1
590339,296,1
590343,393,1
590347,555,1
590351,860,1
590355,1024,1
590359,1024,1
590363,1024,1
590367,972,1
590371,756,1
590375,543,1
590379,464,1
590383,393,1
590387,324,1
590391,356,1
590395,447,1
590399,569,1
590403,570,1
590407,492,1
590411,476,1
590415,504,1
590419,581,1
590423,560,1
590427,483,1
590431,475,1
590435,509,1
590439,594,1
590443,571,1
590447,490,1
590451,484,1
590455,522,1
590459,608,1
590463,585,1
590467,505,1
590471,497,1
590475,535,1
590479,619,1
590483,595,1
590487,519,1
590491,514,1
590495,554,1
590499,637,1
590503,609,1
590507,534,1
590511,531,1
590515,570,1
590519,654,1
590523,629,1
590527,555,1
590531,553,1
590535,595,1
590539,679,1
590543,649,1
590547,572,1
590551,568,1
590555,607,1
590559,690,1
590563,661,1
590567,584,1
590571,578,1
590575,614,1
590579,690,1
590583,653,1
590587,572,1
590591,560,1
590595,590,1
590599,661,1
590603,617,1
590607,532,1
590611,519,1
590615,552,1
590619,622,1
590623,580,1
590627,499,1
590631,489,1
590635,524,1
590639,597,1
590643,555,1
590647,481,1
590651,476,1
590655,516,1
590659,590,1
590663,550,1
590667,477,1
590671,475,1
590675,516,1
590679,590,1
590683,549,1
590687,478,1
590691,476,1
590695,518,1
590699,593,1
590703,552,1
590707,482,1
590711,481,1
590715,522,1
590719,595,1
590723,550,1
590727,481,1
590731,481,1
590735,523,1
590739,596,1
590743,549,1
590747,481,1
590751,481,1
590755,526,1
590759,600,1
590763,552,1
590767,483,1
590771,481,1
590775,525,1
590779,600,1
590783,549,1
590787,481,1
590791,481,1
590795,526,1
590799,598,1
590803,547,1
590807,484,1
590811,486,1
590815,532,1
590819,600,1
590823,546,1
590827,481,1
590831,485,1
590835,534,1
590839,604,1
590843,549,1
590847,485,1
590851,487,1
590855,534,1
590859,601,1
590863,546,1
590867,486,1
590871,488,1
590875,535,1
590879,603,1
590883,546,1
590887,486,1
590891,488,1
590895,536,1
590899,601,1
590903,544,1
590907,483,1
590911,486,1
590915,536,1
590919,606,1
590923,552,1
590927,495,1
590931,500,1
590935,550,1
590939,616,1
590943,556,1
590947,499,1
590951,513,1
590955,579,1
590959,654,1
590963,601,1
590967,541,1
590971,542,1
590975,590,1
590979,648,1
590983,577,1
590987,507,1
590991,505,1
590995,550,1
590999,606,1
591003,536,1
591007,476,1
591011,478,1
591015,531,1
591019,592,1
591023,526,1
591027,469,1
591031,474,1
591035,529,1
591039,589,1
591043,522,1
591047,468,1
591051,474,1
591055,528,1
591059,590,1
591063,526,1
591067,474,1
591071,480,1
591075,533,1
591079,592,1
591083,522,1
591087,451,1
591091,403,1
591095,368,1
591099,334,1
591103,222,1
591107,196,1
591111,340,1
591115,670,1
591119,1024,1
591123,1024,1
591127,1024,1
591131,1024,1
591135,920,1
591139,750,1
591143,502,1
591147,344,1
591151,315,1
591155,376,1
591159,469,1
591163,449,1
591168,441,1
591172,474,1
591176,542,1
591180,595,1
591184,518,1
591188,464,1
591192,475,1
591196,541,1
591200,600,1
591204,528,1
591208,478,1
591212,489,1
591216,555,1
591220,613,1
591224,540,1
591228,490,1
591232,502,1
591236,567,1
591240,618,1
591244,546,1
591248,502,1
591252,518,1
591256,584,1
591260,636,1
591264,564,1
591268,518,1
591272,530,1
591276,597,1
591280,651,1
591284,581,1
591288,538,1
591292,553,1
591296,622,1
591300,673,1
591304,605,1
591308,562,1
591312,576,1
591316,641,1
591320,691,1
591324,625,1
591328,580,1
591332,588,1
591336,642,1
591340,687,1
591344,624,1
591348,579,1
591352,582,1
591356,634,1
591360,674,1
591364,606,1
591368,553,1
591372,547,1
591376,593,1
591380,632,1
591384,573,1
591388,522,1
591392,516,1
591396,555,1
591400,592,1
591404,534,1
591408,493,1
591412,493,1
591416,537,1
591420,577,1
591424,520,1
591428,482,1
591432,487,1
591436,536,1
591440,576,1
591444,518,1
591448,480,1
591452,487,1
591456,537,1
591460,574,1
591464,514,1
591468,478,1
591472,485,1
591476,540,1
591480,579,1
591484,518,1
591488,481,1
591492,487,1
591496,545,1
591500,584,1
591504,519,1
591508,486,1
591512,497,1
591516,556,1
591520,589,1
591524,514,1
591528,477,1
591532,489,1
591536,559,1
591540,594,1
591544,518,1
591548,483,1
591552,497,1
591556,567,1
591560,595,1
591564,513,1
591568,478,1
591572,496,1
591576,570,1
591580,597,1
591584,512,1
591588,480,1
591592,496,1
591596,571,1
591600,596,1
591604,512,1
591608,480,1
591612,499,1
591616,579,1
591620,601,1
591624,512,1
591628,481,1
591632,500,1
591636,581,1
591640,603,1
591644,513,1
591648,484,1
591652,509,1
591656,597,1
591660,619,1
591664,529,1
591668,500,1
591672,521,1
591676,606,1
591680,636,1
591684,560,1
591688,538,1
591692,565,1
591696,645,1
591700,657,1
591704,561,1
591708,525,1
591712,540,1
591716,613,1
591720,619,1
591724,522,1
591728,488,1
591732,504,1
591736,583,1
591740,594,1
591744,501,1
591748,473,1
591752,496,1
591756,577,1
591760,589,1
591764,499,1
591768,476,1
591772,497,1
591776,570,1
591780,583,1
591784,506,1
591788,481,1
591792,499,1
591796,572,1
591800,589,1
591804,512,1
591808,486,1
591812,502,1
591816,560,1
591820,528,1
591824,361,1
591828,235,1
591832,200,1
591836,296,1
591840,436,1
591844,602,1
591848,884,1
591852,1024,1
591856,1024,1
591860,1024,1
591864,960,1
591868,736,1
591872,541,1
591876,489,1
591880,438,1
591884,345,1
591888,341,1
591892,405,1
591896,528,1
591900,570,1
591904,509,1
591908,487,1
591912,504,1
591916,574,1
591920,581,1
591924,506,1
591928,488,1
591932,513,1
591936,589,1
591940,600,1
591944,524,1
591948,501,1
591952,521,1
591956,596,1
591960,609,1
591964,538,1
591968,518,1
591972,536,1
591976,609,1
591980,622,1
591984,555,1
591988,534,1
591992,552,1
591996,603,1
592000,629,1
592004,591,1
592008,567,1
592012,570,1
592016,615,1
592020,639,1
592024,606,1
592028,589,1
592032,597,1
592036,642,1
592040,664,1
592044,628,1
592048,606,1
592052,609,1
592056,652,1
592060,673,1
592064,634,1
592068,609,1
592072,610,1
592076,649,1
592080,665,1
592084,625,1
592088,595,1
592092,592,1
592096,622,1
592100,632,1
592104,586,1
592108,555,1
592112,555,1
592116,590,1
592120,600,1
592124,553,1
592128,524,1
592132,526,1
592136,568,1
592140,585,1
592144,541,1
592148,513,1
592152,514,1
592156,559,1
592160,576,1
592164,534,1
592168,514,1
592172,518,1
592176,559,1
592180,571,1
592184,531,1
592188,511,1
592192,519,1
592196,562,1
592200,577,1
592204,534,1
592208,512,1
592212,517,1
592216,558,1
592220,573,1
592224,538,1
592228,519,1
592232,525,1
592236,562,1
592240,576,1
592244,538,1
592248,519,1
592252,523,1
592256,561,1
592260,574,1
592264,541,1
592268,523,1
592272,528,1
592276,566,1
592280,576,1
592284,541,1
592288,522,1
592292,528,1
592296,562,1
592300,573,1
592304,542,1
592308,523,1
592312,529,1
592316,561,1
592320,569,1
592324,538,1
592328,525,1
592332,531,1
592336,566,1
592340,576,1
592344,542,1
592348,522,1
592352,528,1
592356,566,1
592360,572,1
592364,543,1
592368,526,1
592372,529,1
592376,556,1
592380,566,1
592384,544,1
592388,532,1
592392,534,1
592396,549,1
592400,553,1
592404,541,1
592408,533,1
592412,536,1
592416,552,1
592420,559,1
592424,554,1
592428,552,1
592432,554,1
592436,562,1
592440,568,1
592444,577,1
592448,589,1
592452,598,1
592456,605,1
592460,600,1
592464,588,1
592468,579,1
592472,573,1
592476,572,1
592480,566,1
592484,552,1
592488,541,1
592492,532,1
592496,531,1
592500,526,1
592504,521,1
592508,521,1
592512,522,1
592516,530,1
592520,525,1
592524,517,1
592528,516,1
592532,518,1
592536,523,1
592540,521,1
592544,517,1
592548,518,1
592552,522,1
592556,528,1
592560,526,1
592564,521,1
592568,521,1
592572,522,1
592576,523,1
592580,488,1
592584,390,1
592588,278,1
592592,216,1
592596,232,1
592600,330,1
592604,553,1
592609,867,1
592613,1024,1
592617,1024,1
592621,1024,1
592625,1020,1
592629,826,1
592633,593,1
592637,434,1
592641,370,1
592645,373,1
592649,403,1
592653,458,1
592657,506,1
592661,530,1
592665,528,1
592669,522,1
592673,521,1
592677,524,1
592681,521,1
592685,516,1
592689,518,1
592693,525,1
592697,542,1
592701,544,1
592705,534,1
592709,529,1
592713,533,1
592717,547,1
592721,549,1
592725,542,1
592729,540,1
592733,543,1
592737,561,1
592741,566,1
592745,560,1
592749,561,1
592753,567,1
592757,576,1
592761,576,1
592765,571,1
592769,574,1
592773,583,1
592777,595,1
592781,594,1
592785,592,1
592789,598,1
592793,606,1
592797,614,1
592801,615,1
592805,615,1
592809,615,1
592813,622,1
592817,629,1
592821,628,1
592825,626,1
592829,626,1
592833,626,1
592837,628,1
592841,622,1
592845,615,1
592849,608,1
592853,605,1
592857,601,1
592861,589,1
592865,577,1
592869,569,1
592873,564,1
592877,561,1
592881,552,1
592885,542,1
592889,535,1
592893,535,1
592897,537,1
592901,531,1
592905,521,1
592909,518,1
592913,522,1
592917,528,1
592921,522,1
592925,521,1
592929,522,1
592933,524,1
592937,526,1
592941,523,1
592945,521,1
592949,519,1
592953,519,1
592957,523,1
592961,521,1
592965,521,1
592969,523,1
592973,523,1
592977,526,1
592981,522,1
592985,522,1
592989,526,1
592993,533,1
592997,533,1
593001,526,1
593005,523,1
593009,524,1
593013,530,1
593017,533,1
593021,528,1
593025,525,1
593029,525,1
593033,532,1
593037,535,1
593041,531,1
593045,526,1
593049,525,1
593053,529,1
593057,534,1
593061,529,1
593065,525,1
593069,528,1
593073,533,1
593077,536,1
593081,533,1
593085,531,1
593089,530,1
593093,532,1
593097,535,1
593101,532,1
593105,528,1
593109,528,1
593113,532,1
593117,535,1
593121,533,1
593125,532,1
593129,534,1
593133,535,1
593137,536,1
593141,533,1
593145,533,1
593149,533,1
593153,538,1
593157,543,1
593161,535,1
593165,531,1
593169,532,1
593173,536,1
593177,545,1
593181,545,1
593185,546,1
593189,547,1
593193,553,1
593197,555,1
593201,553,1
593205,554,1
