timestamp_ms,value,lead_ok,ax100,ay100,az100,motion_flag
1776504,509,1,0,0,0,0
1776512,505,1,0,0,0,0
1776520,514,1,0,0,0,0
1776528,513,1,0,0,0,0
1776536,509,1,0,0,0,0
1776544,519,1,0,0,0,0
1776552,519,1,0,0,0,0
1776560,523,1,0,0,0,0
1776568,525,1,0,0,0,0
1776576,532,1,0,0,0,0
1776584,541,1,0,0,0,0
1776592,541,1,0,0,0,0
1776600,546,1,0,0,0,0
1776608,553,1,0,0,0,0
1776616,560,1,0,0,0,0
1776624,579,1,0,0,0,0
1776632,581,1,0,0,0,0
1776640,588,1,0,0,0,0
1776648,590,1,0,0,0,0
1776656,592,1,0,0,0,0
1776664,592,1,0,0,0,0
1776672,576,1,0,0,0,0
1776680,566,1,0,0,0,0
1776688,546,1,0,0,0,0
1776696,541,1,0,0,0,0
1776704,533,1,0,0,0,0
1776712,524,1,0,0,0,0
1776720,521,1,0,0,0,0
1776728,518,1,0,0,0,0
1776736,518,1,0,0,0,0
1776744,524,1,0,0,0,0
1776752,519,1,0,0,0,0
1776760,522,1,0,0,0,0
1776768,522,1,0,0,0,0
1776776,519,1,0,0,0,0
1776784,518,1,0,0,0,0
1776792,516,1,0,0,0,0
1776800,520,1,0,0,0,0
1776808,517,1,0,0,0,0
1776816,514,1,0,0,0,0
1776824,521,1,0,0,0,0
1776832,518,1,0,0,0,0
1776840,521,1,0,0,0,0
1776848,525,1,0,0,0,0
1776856,528,1,0,0,0,0
1776864,528,1,0,0,0,0
1776872,524,1,0,0,0,0
1776880,533,1,0,0,0,0
1776888,536,1,0,0,0,0
1776896,535,1,0,0,0,0
1776904,535,1,0,0,0,0
1776912,534,1,0,0,0,0
1776920,538,1,0,0,0,0
1776928,538,1,0,0,0,0
1776936,535,1,0,0,0,0
1776944,538,1,0,0,0,0
1776952,538,1,0,0,0,0
1776960,543,1,0,0,0,0
1776968,542,1,0,0,0,0
1776976,542,1,0,0,0,0
1776984,550,1,0,0,0,0
1776992,545,1,0,0,0,0
1777000,546,1,0,0,0,0
1777008,543,1,0,0,0,0
1777016,543,1,0,0,0,0
1777024,552,1,0,0,0,0
1777032,546,1,0,0,0,0
1777040,543,1,0,0,0,0
1777048,545,1,0,0,0,0
1777056,545,1,0,0,0,0
1777064,549,1,0,0,0,0
1777072,546,1,0,0,0,0
1777080,546,1,0,0,0,0
1777088,543,1,0,0,0,0
1777096,545,1,0,0,0,0
1777104,552,1,0,0,0,0
1777112,547,1,0,0,0,0
1777120,545,1,0,0,0,0
1777128,543,1,0,0,0,0
1777136,545,1,0,0,0,0
1777144,552,1,0,0,0,0
1777152,545,1,0,0,0,0
1777160,540,1,0,0,0,0
1777168,540,1,0,0,0,0
1777176,540,1,0,0,0,0
1777184,548,1,0,0,0,0
1777192,547,1,0,0,0,0
1777200,545,1,0,0,0,0
1777208,559,1,0,0,0,0
1777216,566,1,0,0,0,0
1777224,566,1,0,0,0,0
1777232,552,1,0,0,0,0
1777240,550,1,0,0,0,0
1777248,546,1,0,0,0,0
1777256,542,1,0,0,0,0
1777264,546,1,0,0,0,0
1777272,541,1,0,0,0,0
1777280,542,1,0,0,0,0
1777288,544,1,0,0,0,0
1777296,528,1,0,0,0,0
1777304,500,1,0,0,0,0
1777312,412,1,0,0,0,0
1777320,377,1,0,0,0,0
1777328,522,1,0,0,0,0
1777336,823,1,0,0,0,0
1777344,756,1,0,0,0,0
1777352,594,1,0,0,0,0
1777360,708,1,0,0,0,0
1777368,686,1,0,0,0,0
1777376,567,1,0,0,0,0
1777384,514,1,0,0,0,0
1777392,502,1,0,0,0,0
1777400,507,1,0,0,0,0
1777408,499,1,0,0,0,0
1777416,500,1,0,0,0,0
1777424,512,1,0,0,0,0
1777432,506,1,0,0,0,0
1777440,502,1,0,0,0,0
1777448,505,1,0,0,0,0
1777456,501,1,0,0,0,0
1777465,513,1,0,0,0,0
1777473,509,1,0,0,0,0
1777481,507,1,0,0,0,0
1777489,509,1,0,0,0,0
1777497,517,1,0,0,0,0
1777505,525,1,0,0,0,0
1777513,523,1,0,0,0,0
1777521,523,1,0,0,0,0
1777529,534,1,0,0,0,0
1777537,537,1,0,0,0,0
1777545,552,1,0,0,0,0
1777553,555,1,0,0,0,0
1777561,568,1,0,0,0,0
1777569,580,1,0,0,0,0
1777577,580,1,0,0,0,0
1777585,590,1,0,0,0,0
1777593,590,1,0,0,0,0
1777601,585,1,0,0,0,0
1777609,584,1,0,0,0,0
1777617,573,1,0,0,0,0
1777625,562,1,0,0,0,0
1777633,545,1,0,0,0,0
1777641,536,1,0,0,0,0
1777649,535,1,0,0,0,0
1777657,526,1,0,0,0,0
1777665,523,1,0,0,0,0
1777673,517,1,0,0,0,0
1777681,528,1,0,0,0,0
1777689,523,1,0,0,0,0
1777697,516,1,0,0,0,0
1777705,525,1,0,0,0,0
1777713,521,1,0,0,0,0
1777721,521,1,0,0,0,0
1777729,519,1,0,0,0,0
1777737,509,1,0,0,0,0
1777745,516,1,0,0,0,0
1777753,513,1,0,0,0,0
1777761,516,1,0,0,0,0
1777769,519,1,0,0,0,0
1777777,520,1,0,0,0,0
1777785,526,1,0,0,0,0
1777793,522,1,0,0,0,0
1777801,525,1,0,0,0,0
1777809,524,1,0,0,0,0
1777817,524,1,0,0,0,0
1777825,525,1,0,0,0,0
1777833,521,1,0,0,0,0
1777841,526,1,0,0,0,0
1777849,526,1,0,0,0,0
1777857,533,1,0,0,0,0
1777865,535,1,0,0,0,0
1777873,533,1,0,0,0,0
1777881,537,1,0,0,0,0
1777889,535,1,0,0,0,0
1777897,533,1,0,0,0,0
1777905,542,1,0,0,0,0
1777913,542,1,0,0,0,0
1777921,541,1,0,0,0,0
1777929,535,1,0,0,0,0
1777937,536,1,0,0,0,0
1777945,541,1,0,0,0,0
1777953,542,1,0,0,0,0
1777961,546,1,0,0,0,0
1777969,544,1,0,0,0,0
1777977,542,1,0,0,0,0
1777985,546,1,0,0,0,0
1777993,528,1,0,0,0,0
1778001,535,1,0,0,0,0
1778009,542,1,0,0,0,0
0,0,0,0,0,100,0
1778681,521,1,0,0,0,0
1778689,519,1,0,0,0,0
1778697,518,1,0,0,0,0
1778705,522,1,0,0,0,0
1778713,516,1,0,0,0,0
1778721,522,1,0,0,0,0
1778729,523,1,0,0,0,0
1778737,521,1,0,0,0,0
1778729,523,1,0,0,0,0
1778737,521,1,0,0,0,0
1778729,523,1,0,0,0,0
1778737,521,1,0,0,0,0
1778729,523,1,0,0,0,0
1778737,521,1,0,0,0,0
1778729,523,1,0,0,0,0
1778737,521,1,0,0,0,0
1778729,523,1,0,0,0,0
1778737,521,1,0,0,0,0
1778729,523,1,0,0,0,0
1778737,521,1,0,0,0,0
1778729,523,1,0,0,0,0
1778737,521,1,0,0,0,0
1778729,523,1,0,0,0,0
1778737,521,1,0,0,0,0
1778729,523,1,0,0,0,0
1778737,521,1,0,0,0,0
1778729,523,1,0,0,0,0
1778737,521,1,0,0,0,0
1778745,523,1,0,0,0,0
1778753,532,1,0,0,0,0
1778761,529,1,0,0,0,0
1778769,536,1,0,0,0,0
1778777,534,1,0,0,0,0
1778785,536,1,0,0,0,0
1778793,536,1,0,0,0,0
1778801,545,1,0,0,0,0
1778809,545,1,0,0,0,0
1778817,537,1,0,0,0,0
1778825,543,1,0,0,0,0
1778833,543,1,0,0,0,0
1778841,549,1,0,0,0,0
1778849,553,1,0,0,0,0
1778857,542,1,0,0,0,0
1778866,549,1,0,0,0,0
1778874,546,1,0,0,0,0
1778882,549,1,0,0,0,0
1778890,556,1,0,0,0,0
1778898,547,1,0,0,0,0
1778906,547,1,0,0,0,0
1778914,549,1,0,0,0,0
1778922,553,1,0,0,0,0
1778930,548,1,0,0,0,0
1778938,543,1,0,0,0,0
1778946,561,1,0,0,0,0
1778954,561,1,0,0,0,0
1778962,573,1,0,0,0,0
1778970,567,1,0,0,0,0
1778978,561,1,0,0,0,0
1778986,569,1,0,0,0,0
1778994,552,1,0,0,0,0
1779002,546,1,0,0,0,0
1779010,555,1,0,0,0,0
1779018,545,1,0,0,0,0
1779026,546,1,0,0,0,0
1779034,545,1,0,0,0,0
1779042,543,1,0,0,0,0
1779050,526,1,0,0,0,0
1779058,476,1,0,0,0,0
1779066,386,1,0,0,0,0
1779074,408,1,0,0,0,0
1779082,630,1,0,0,0,0
1779090,880,1,0,0,0,0
1779098,669,1,0,0,0,0
1779106,605,1,0,0,0,0
1779114,710,1,0,0,0,0
1779122,666,1,0,0,0,0
1779130,561,1,0,0,0,0
1779138,517,1,0,0,0,0
1779146,517,1,0,0,0,0
1779154,523,1,0,0,0,0
1779162,519,1,0,0,0,0
1779170,520,1,0,0,0,0
1779178,521,1,0,0,0,0
1779186,522,1,0,0,0,0
1779194,518,1,0,0,0,0
1779202,519,1,0,0,0,0
1779210,517,1,0,0,0,0
1779218,519,1,0,0,0,0
1779226,525,1,0,0,0,0
1779234,518,1,0,0,0,0
1779242,523,1,0,0,0,0
1779250,528,1,0,0,0,0
1779258,530,1,0,0,0,0
1779266,545,1,0,0,0,0
1779274,546,1,0,0,0,0
1779282,546,1,0,0,0,0
1779290,553,1,0,0,0,0
1779298,562,1,0,0,0,0
1779306,571,1,0,0,0,0
1779314,581,1,0,0,0,0
1779322,584,1,0,0,0,0
1779330,596,1,0,0,0,0
1779338,600,1,0,0,0,0
1779346,603,1,0,0,0,0
1779354,597,1,0,0,0,0
1779362,576,1,0,0,0,0
1779370,572,1,0,0,0,0
1779378,558,1,0,0,0,0
1779386,546,1,0,0,0,0
1779394,530,1,0,0,0,0
1779402,521,1,0,0,0,0
1779410,524,1,0,0,0,0
1779418,519,1,0,0,0,0
1779426,522,1,0,0,0,0
1779434,519,1,0,0,0,0
1779442,519,1,0,0,0,0
1779450,525,1,0,0,0,0
1779458,511,1,0,0,0,0
1779466,523,1,0,0,0,0
1779474,522,1,0,0,0,0
1779482,508,1,0,0,0,0
1779490,526,1,0,0,0,0
1779498,523,1,0,0,0,0
1779506,517,1,0,0,0,0
1779514,513,1,0,0,0,0
1779522,521,1,0,0,0,0
1779530,516,1,0,0,0,0
1779538,512,1,0,0,0,0
1779546,526,1,0,0,0,0
1779554,512,1,0,0,0,0
1779562,523,1,0,0,0,0
1779570,534,1,0,0,0,0
1779578,532,1,0,0,0,0
1779586,534,1,0,0,0,0
1779594,522,1,0,0,0,0
1779602,525,1,0,0,0,0
1779610,532,1,0,0,0,0
1779618,521,1,0,0,0,0
1779626,533,1,0,0,0,0
1779634,524,1,0,0,0,0
1779642,522,1,0,0,0,0
1779650,525,1,0,0,0,0
1779658,525,1,0,0,0,0
1779666,523,1,0,0,0,0
1779674,541,1,0,0,0,0
1779682,546,1,0,0,0,0
1779690,547,1,0,0,0,0
1779698,547,1,0,0,0,0
1779706,541,1,0,0,0,0
1779714,543,1,0,0,0,0
1779722,546,1,0,0,0,0
1779730,546,1,0,0,0,0
1779738,550,1,0,0,0,0
1779746,552,1,0,0,0,0
1779754,545,1,0,0,0,0
1779762,543,1,0,0,0,0
1779770,547,1,0,0,0,0
1779778,541,1,0,0,0,0
1779786,550,1,0,0,0,0
1779794,545,1,0,0,0,0
1779802,550,1,0,0,0,0
1779810,567,1,0,0,0,0
1779818,569,1,0,0,0,0
1779826,561,1,0,0,0,0
1779834,553,1,0,0,0,0
1779842,556,1,0,0,0,0
1779850,555,1,0,0,0,0
1779858,538,1,0,0,0,0
1779866,552,1,0,0,0,0
1779874,547,1,0,0,0,0
1779882,543,1,0,0,0,0
1779890,547,1,0,0,0,0
1779898,535,1,0,0,0,0
1779906,480,1,0,0,0,0
1779914,382,1,0,0,0,0
1779922,352,1,0,0,0,0
1779930,514,1,0,0,0,0
1779938,794,1,0,0,0,0
1779946,689,1,0,0,0,0
1779954,591,1,0,0,0,0
1779962,722,1,0,0,0,0
1779970,697,1,0,0,0,0
1779978,567,1,0,0,0,0
1779986,525,1,0,0,0,0
1779994,513,1,0,0,0,0
1780002,514,1,0,0,0,0
1780010,512,1,0,0,0,0
1780018,518,1,0,0,0,0
1780026,507,1,0,0,0,0
1780034,505,1,0,0,0,0
1780042,513,1,0,0,0,0
1780050,514,1,0,0,0,0
1780058,502,1,0,0,0,0
1780066,507,1,0,0,0,0
1780074,519,1,0,0,0,0
1780082,523,1,0,0,0,0
1780090,522,1,0,0,0,0
1780098,526,1,0,0,0,0
1780106,525,1,0,0,0,0
1780114,526,1,0,0,0,0
1780122,528,1,0,0,0,0
1780130,545,1,0,0,0,0
1780138,549,1,0,0,0,0
1780146,553,1,0,0,0,0
1780154,554,1,0,0,0,0
1780162,567,1,0,0,0,0
1780170,585,1,0,0,0,0
1780178,584,1,0,0,0,0
1780186,591,1,0,0,0,0
1780194,592,1,0,0,0,0
1780202,580,1,0,0,0,0
1780210,580,1,0,0,0,0
1780218,568,1,0,0,0,0
1780226,543,1,0,0,0,0
1780234,529,1,0,0,0,0
1780243,523,1,0,0,0,0
1780251,520,1,0,0,0,0
1780259,513,1,0,0,0,0
1780267,513,1,0,0,0,0
1780275,504,1,0,0,0,0
1780283,506,1,0,0,0,0
1780291,509,1,0,0,0,0
1780299,507,1,0,0,0,0
1780307,513,1,0,0,0,0
1780315,507,1,0,0,0,0
1780323,509,1,0,0,0,0
1780331,514,1,0,0,0,0
1780339,514,1,0,0,0,0
1780347,512,1,0,0,0,0
1780355,514,1,0,0,0,0
1780363,518,1,0,0,0,0
1780371,517,1,0,0,0,0
1780379,514,1,0,0,0,0
1780387,519,1,0,0,0,0
1780395,518,1,0,0,0,0
1780403,521,1,0,0,0,0
1780411,529,1,0,0,0,0
1780419,526,1,0,0,0,0
1780427,524,1,0,0,0,0
1780435,534,1,0,0,0,0
1780443,531,1,0,0,0,0
1780451,525,1,0,0,0,0
1780459,533,1,0,0,0,0
1780467,541,1,0,0,0,0
1780475,530,1,0,0,0,0
1780483,533,1,0,0,0,0
1780491,542,1,0,0,0,0
1780499,537,1,0,0,0,0
1780507,540,1,0,0,0,0
1780515,540,1,0,0,0,0
1780523,535,1,0,0,0,0
1780531,535,1,0,0,0,0
1780539,541,1,0,0,0,0
1780547,545,1,0,0,0,0
1780555,543,1,0,0,0,0
1780563,545,1,0,0,0,0
1780571,556,1,0,0,0,0
1780579,566,1,0,0,0,0
1780587,557,1,0,0,0,0
1780595,550,1,0,0,0,0
1780603,546,1,0,0,0,0
1780611,526,1,0,0,0,0
1780619,533,1,0,0,0,0
1780627,541,1,0,0,0,0
1780635,538,1,0,0,0,0
1780643,534,1,0,0,0,0
1780651,537,1,0,0,0,0
1780659,529,1,0,0,0,0
1780667,489,1,0,0,0,0
1780675,397,1,0,0,0,0
1780683,361,1,0,0,0,0
1780691,518,1,0,0,0,0
1780699,806,1,0,0,0,0
1780707,750,1,0,0,0,0
1780715,541,1,0,0,0,0
1780723,637,1,0,0,0,0
1780731,696,1,0,0,0,0
1780739,604,1,0,0,0,0
1780747,526,1,0,0,0,0
1780755,516,1,0,0,0,0
1780763,516,1,0,0,0,0
1780771,528,1,0,0,0,0
1780779,507,1,0,0,0,0
1780787,518,1,0,0,0,0
1780795,519,1,0,0,0,0
1780803,511,1,0,0,0,0
1780811,524,1,0,0,0,0
1780819,526,1,0,0,0,0
1780827,523,1,0,0,0,0
1780835,516,1,0,0,0,0
1780843,523,1,0,0,0,0
1780851,530,1,0,0,0,0
1780859,532,1,0,0,0,0
1780867,532,1,0,0,0,0
1780875,530,1,0,0,0,0
1780883,536,1,0,0,0,0
1780891,545,1,0,0,0,0
1780899,545,1,0,0,0,0
1780907,559,1,0,0,0,0
1780915,577,1,0,0,0,0
1780923,586,1,0,0,0,0
1780931,584,1,0,0,0,0
1780939,608,1,0,0,0,0
1780947,622,1,0,0,0,0
1780955,608,1,0,0,0,0
1780963,603,1,0,0,0,0
1780971,600,1,0,0,0,0
1780979,586,1,0,0,0,0
1780987,569,1,0,0,0,0
1780995,552,1,0,0,0,0
1781003,540,1,0,0,0,0
1781011,530,1,0,0,0,0
1781019,520,1,0,0,0,0
1781027,519,1,0,0,0,0
1781035,530,1,0,0,0,0
1781043,526,1,0,0,0,0
1781051,523,1,0,0,0,0
1781059,519,1,0,0,0,0
1781067,524,1,0,0,0,0
1781075,523,1,0,0,0,0
1781083,521,1,0,0,0,0
1781091,517,1,0,0,0,0
1781099,516,1,0,0,0,0
1781107,518,1,0,0,0,0
1781115,523,1,0,0,0,0
1781123,522,1,0,0,0,0
1781131,521,1,0,0,0,0
1781139,519,1,0,0,0,0
1781147,525,1,0,0,0,0
1781155,526,1,0,0,0,0
1781163,521,1,0,0,0,0
1781171,521,1,0,0,0,0
1781179,526,1,0,0,0,0
1781187,529,1,0,0,0,0
1781195,533,1,0,0,0,0
1781203,535,1,0,0,0,0
1781211,536,1,0,0,0,0
1781219,541,1,0,0,0,0
1781227,543,1,0,0,0,0
1781235,542,1,0,0,0,0
1781243,541,1,0,0,0,0
1781251,541,1,0,0,0,0
1781259,541,1,0,0,0,0
1781267,543,1,0,0,0,0
1781275,543,1,0,0,0,0
1781283,547,1,0,0,0,0
1781291,546,1,0,0,0,0
1781299,541,1,0,0,0,0
1781307,542,1,0,0,0,0
1781315,545,1,0,0,0,0
1781323,545,1,0,0,0,0
1781331,542,1,0,0,0,0
1781339,552,1,0,0,0,0
1781347,568,1,0,0,0,0
1781355,568,1,0,0,0,0
1781363,567,1,0,0,0,0
1781371,556,1,0,0,0,0
1781379,555,1,0,0,0,0
1781387,547,1,0,0,0,0
1781395,543,1,0,0,0,0
1781403,543,1,0,0,0,0
1781411,542,1,0,0,0,0
1781419,546,1,0,0,0,0
1781427,545,1,0,0,0,0
1781435,533,1,0,0,0,0
1781443,494,1,0,0,0,0
1781451,414,1,0,0,0,0
1781459,348,1,0,0,0,0
1781467,463,1,0,0,0,0
1781475,757,1,0,0,0,0
1781483,753,1,0,0,0,0
1781491,547,1,0,0,0,0
1781499,624,1,0,0,0,0
1781507,705,1,0,0,0,0
1781515,625,1,0,0,0,0
1781523,540,1,0,0,0,0
1781531,522,1,0,0,0,0
1781539,519,1,0,0,0,0
1781547,518,1,0,0,0,0
1781555,516,1,0,0,0,0
1781563,517,1,0,0,0,0
1781571,518,1,0,0,0,0
1781579,511,1,0,0,0,0
1781587,518,1,0,0,0,0
1781595,517,1,0,0,0,0
1781603,516,1,0,0,0,0
1781611,526,1,0,0,0,0
1781619,525,1,0,0,0,0
1781627,521,1,0,0,0,0
1781635,523,1,0,0,0,0
1781643,534,1,0,0,0,0
1781651,537,1,0,0,0,0
1781659,533,1,0,0,0,0
1781667,536,1,0,0,0,0
1781675,553,1,0,0,0,0
1781683,560,1,0,0,0,0
1781691,571,1,0,0,0,0
1781699,577,1,0,0,0,0
1781708,584,1,0,0,0,0
1781716,594,1,0,0,0,0
1781724,594,1,0,0,0,0
1781732,594,1,0,0,0,0
1781740,586,1,0,0,0,0
1781748,585,1,0,0,0,0
1781756,574,1,0,0,0,0
1781764,562,1,0,0,0,0
1781772,544,1,0,0,0,0
1781780,531,1,0,0,0,0
1781788,528,1,0,0,0,0
1781796,525,1,0,0,0,0
1781804,519,1,0,0,0,0
1781812,525,1,0,0,0,0
1781820,519,1,0,0,0,0
1781828,520,1,0,0,0,0
1781836,513,1,0,0,0,0
1781844,508,1,0,0,0,0
1781852,519,1,0,0,0,0
1781860,519,1,0,0,0,0
1781868,508,1,0,0,0,0
1781876,513,1,0,0,0,0
1781884,517,1,0,0,0,0
1781892,514,1,0,0,0,0
1781900,514,1,0,0,0,0
1781908,523,1,0,0,0,0
1781916,523,1,0,0,0,0
1781924,516,1,0,0,0,0
1781932,520,1,0,0,0,0
1781940,519,1,0,0,0,0
1781948,526,1,0,0,0,0
1781956,526,1,0,0,0,0
1781964,523,1,0,0,0,0
1781972,535,1,0,0,0,0
1781980,529,1,0,0,0,0
1781988,528,1,0,0,0,0
1781996,541,1,0,0,0,0
1782004,533,1,0,0,0,0
1782012,541,1,0,0,0,0
1782020,535,1,0,0,0,0
1782028,542,1,0,0,0,0
1782036,544,1,0,0,0,0
1782044,545,1,0,0,0,0
1782052,543,1,0,0,0,0
1782060,541,1,0,0,0,0
1782068,542,1,0,0,0,0
1782076,546,1,0,0,0,0
1782084,542,1,0,0,0,0
1782092,549,1,0,0,0,0
1782100,542,1,0,0,0,0
1782108,546,1,0,0,0,0
1782116,541,1,0,0,0,0
1782124,554,1,0,0,0,0
1782132,568,1,0,0,0,0
1782140,577,1,0,0,0,0
1782148,574,1,0,0,0,0
1782156,566,1,0,0,0,0
1782164,546,1,0,0,0,0
1782172,549,1,0,0,0,0
1782180,545,1,0,0,0,0
1782188,540,1,0,0,0,0
1782196,542,1,0,0,0,0
1782204,546,1,0,0,0,0
1782212,547,1,0,0,0,0
1782220,543,1,0,0,0,0
1782228,518,1,0,0,0,0
1782236,462,1,0,0,0,0
1782244,373,1,0,0,0,0
1782252,408,1,0,0,0,0
1782260,661,1,0,0,0,0
1782268,869,1,0,0,0,0
1782276,643,1,0,0,0,0
1782284,606,1,0,0,0,0
1782292,706,1,0,0,0,0
1782300,644,1,0,0,0,0
1782308,541,1,0,0,0,0
1782316,514,1,0,0,0,0
1782324,505,1,0,0,0,0
1782332,506,1,0,0,0,0
1782340,508,1,0,0,0,0
1782348,513,1,0,0,0,0
1782356,513,1,0,0,0,0
1782364,512,1,0,0,0,0
1782372,509,1,0,0,0,0
1782380,509,1,0,0,0,0
1782388,509,1,0,0,0,0
1782396,512,1,0,0,0,0
1782404,517,1,0,0,0,0
1782412,516,1,0,0,0,0
1782420,517,1,0,0,0,0
1782428,520,1,0,0,0,0
1782436,530,1,0,0,0,0
1782444,528,1,0,0,0,0
1782452,533,1,0,0,0,0
1782460,541,1,0,0,0,0
1782468,550,1,0,0,0,0
1782476,558,1,0,0,0,0
1782484,568,1,0,0,0,0
1782492,581,1,0,0,0,0
1782500,586,1,0,0,0,0
1782508,589,1,0,0,0,0
1782516,590,1,0,0,0,0
1782524,589,1,0,0,0,0
1782532,585,1,0,0,0,0
1782540,569,1,0,0,0,0
1782548,554,1,0,0,0,0
1782556,549,1,0,0,0,0
1782564,535,1,0,0,0,0
1782572,534,1,0,0,0,0
1782580,519,1,0,0,0,0
1782588,518,1,0,0,0,0
1782596,514,1,0,0,0,0
1782604,507,1,0,0,0,0
1782612,516,1,0,0,0,0
1782620,513,1,0,0,0,0
1782628,516,1,0,0,0,0
1782636,512,1,0,0,0,0
1782644,506,1,0,0,0,0
1782652,512,1,0,0,0,0
1782660,510,1,0,0,0,0
1782668,509,1,0,0,0,0
1782676,513,1,0,0,0,0
1782684,508,1,0,0,0,0
1782692,509,1,0,0,0,0
1782700,513,1,0,0,0,0
1782708,517,1,0,0,0,0
1782716,519,1,0,0,0,0
1782724,517,1,0,0,0,0
1782732,519,1,0,0,0,0
1782740,517,1,0,0,0,0
1782748,519,1,0,0,0,0
1782756,526,1,0,0,0,0
1782764,526,1,0,0,0,0
1782772,528,1,0,0,0,0
1782780,529,1,0,0,0,0
1782788,542,1,0,0,0,0
1782796,536,1,0,0,0,0
1782804,531,1,0,0,0,0
1782812,535,1,0,0,0,0
1782820,541,1,0,0,0,0
1782828,535,1,0,0,0,0
1782836,537,1,0,0,0,0
1782844,545,1,0,0,0,0
1782852,547,1,0,0,0,0
1782860,535,1,0,0,0,0
1782868,543,1,0,0,0,0
1782876,546,1,0,0,0,0
1782884,546,1,0,0,0,0
1782892,538,1,0,0,0,0
1782900,545,1,0,0,0,0
1782908,546,1,0,0,0,0
1782916,546,1,0,0,0,0
1782924,546,1,0,0,0,0
1782932,543,1,0,0,0,0
1782940,545,1,0,0,0,0
1782948,547,1,0,0,0,0
1782956,545,1,0,0,0,0
1782964,542,1,0,0,0,0
1782972,546,1,0,0,0,0
1782980,541,1,0,0,0,0
1782988,541,1,0,0,0,0
1782996,549,1,0,0,0,0
1783004,546,1,0,0,0,0
1783012,545,1,0,0,0,0
1783020,540,1,0,0,0,0
1783028,548,1,0,0,0,0
1783036,543,1,0,0,0,0
1783044,546,1,0,0,0,0
1783052,561,1,0,0,0,0
1783060,567,1,0,0,0,0
1783068,561,1,0,0,0,0
1783076,556,1,0,0,0,0
1783084,553,1,0,0,0,0
1783092,543,1,0,0,0,0
1783100,537,1,0,0,0,0
1783108,547,1,0,0,0,0
1783116,549,1,0,0,0,0
1783124,543,1,0,0,0,0
1783132,534,1,0,0,0,0
1783140,528,1,0,0,0,0
1783148,499,1,0,0,0,0
1783156,436,1,0,0,0,0
1783164,363,1,0,0,0,0
1783173,459,1,0,0,0,0
1783181,740,1,0,0,0,0
1783189,814,1,0,0,0,0
1783197,588,1,0,0,0,0
1783205,661,1,0,0,0,0
1783213,708,1,0,0,0,0
1783221,594,1,0,0,0,0
1783229,516,1,0,0,0,0
1783237,512,1,0,0,0,0
1783245,505,1,0,0,0,0
1783253,507,1,0,0,0,0
1783261,506,1,0,0,0,0
1783269,504,1,0,0,0,0
1783277,507,1,0,0,0,0
1783285,502,1,0,0,0,0
1783293,505,1,0,0,0,0
1783301,507,1,0,0,0,0
1783309,505,1,0,0,0,0
1783317,507,1,0,0,0,0
1783325,507,1,0,0,0,0
1783333,513,1,0,0,0,0
1783341,514,1,0,0,0,0
1783349,518,1,0,0,0,0
1783357,522,1,0,0,0,0
1783365,521,1,0,0,0,0
1783373,532,1,0,0,0,0
1783381,541,1,0,0,0,0
1783389,542,1,0,0,0,0
1783397,553,1,0,0,0,0
1783405,559,1,0,0,0,0
1783413,567,1,0,0,0,0
1783421,576,1,0,0,0,0
1783429,581,1,0,0,0,0
1783437,585,1,0,0,0,0
1783445,582,1,0,0,0,0
1783453,581,1,0,0,0,0
1783461,568,1,0,0,0,0
1783469,559,1,0,0,0,0
1783477,550,1,0,0,0,0
1783485,535,1,0,0,0,0
1783493,525,1,0,0,0,0
1783501,519,1,0,0,0,0
1783509,518,1,0,0,0,0
1783517,513,1,0,0,0,0
1783525,511,1,0,0,0,0
1783533,516,1,0,0,0,0
1783541,513,1,0,0,0,0
1783549,511,1,0,0,0,0
1783557,518,1,0,0,0,0
1783565,514,1,0,0,0,0
1783573,514,1,0,0,0,0
1783581,508,1,0,0,0,0
1783589,516,1,0,0,0,0
1783597,520,1,0,0,0,0
1783605,519,1,0,0,0,0
1783613,517,1,0,0,0,0
1783621,513,1,0,0,0,0
1783629,518,1,0,0,0,0
1783637,519,1,0,0,0,0
1783645,519,1,0,0,0,0
1783653,524,1,0,0,0,0
1783661,528,1,0,0,0,0
1783669,529,1,0,0,0,0
1783677,528,1,0,0,0,0
1783685,529,1,0,0,0,0
1783693,536,1,0,0,0,0
1783701,526,1,0,0,0,0
1783709,534,1,0,0,0,0
1783717,532,1,0,0,0,0
1783725,529,1,0,0,0,0
1783733,537,1,0,0,0,0
1783741,538,1,0,0,0,0
1783749,535,1,0,0,0,0
1783757,541,1,0,0,0,0
1783765,542,1,0,0,0,0
1783773,542,1,0,0,0,0
1783781,536,1,0,0,0,0
1783789,545,1,0,0,0,0
1783797,545,1,0,0,0,0
1783805,538,1,0,0,0,0
1783813,543,1,0,0,0,0
1783821,545,1,0,0,0,0
1783829,542,1,0,0,0,0
1783837,543,1,0,0,0,0
1783845,542,1,0,0,0,0
1783853,542,1,0,0,0,0
1783861,541,1,0,0,0,0
1783869,543,1,0,0,0,0
1783877,545,1,0,0,0,0
1783885,546,1,0,0,0,0
1783893,546,1,0,0,0,0
1783901,538,1,0,0,0,0
1783909,542,1,0,0,0,0
1783917,547,1,0,0,0,0
1783925,543,1,0,0,0,0
1783933,544,1,0,0,0,0
1783941,542,1,0,0,0,0
1783949,542,1,0,0,0,0
1783957,550,1,0,0,0,0
1783965,560,1,0,0,0,0
1783973,561,1,0,0,0,0
1783981,559,1,0,0,0,0
1783989,554,1,0,0,0,0
1783997,554,1,0,0,0,0
1784005,543,1,0,0,0,0
1784013,543,1,0,0,0,0
1784021,533,1,0,0,0,0
1784029,544,1,0,0,0,0
1784037,547,1,0,0,0,0
1784045,542,1,0,0,0,0
1784053,532,1,0,0,0,0
1784061,496,1,0,0,0,0
1784069,421,1,0,0,0,0
1784077,364,1,0,0,0,0
1784085,483,1,0,0,0,0
1784093,780,1,0,0,0,0
1784101,760,1,0,0,0,0
1784109,570,1,0,0,0,0
1784117,685,1,0,0,0,0
1784125,709,1,0,0,0,0
1784133,591,1,0,0,0,0
1784141,523,1,0,0,0,0
1784149,511,1,0,0,0,0
1784157,517,1,0,0,0,0
1784165,513,1,0,0,0,0
1784173,516,1,0,0,0,0
1784181,513,1,0,0,0,0
1784189,508,1,0,0,0,0
1784197,513,1,0,0,0,0
1784205,509,1,0,0,0,0
1784213,514,1,0,0,0,0
1784221,514,1,0,0,0,0
1784229,513,1,0,0,0,0
1784237,519,1,0,0,0,0
1784245,521,1,0,0,0,0
1784253,523,1,0,0,0,0
1784261,522,1,0,0,0,0
1784269,526,1,0,0,0,0
1784277,536,1,0,0,0,0
1784285,536,1,0,0,0,0
1784293,542,1,0,0,0,0
1784301,552,1,0,0,0,0
1784309,556,1,0,0,0,0
1784317,567,1,0,0,0,0
1784325,579,1,0,0,0,0
1784333,584,1,0,0,0,0
1784341,580,1,0,0,0,0
1784349,586,1,0,0,0,0
1784357,592,1,0,0,0,0
1784365,583,1,0,0,0,0
1784373,572,1,0,0,0,0
1784381,557,1,0,0,0,0
1784389,549,1,0,0,0,0
1784397,536,1,0,0,0,0
1784405,528,1,0,0,0,0
1784413,524,1,0,0,0,0
1784421,518,1,0,0,0,0
1784429,519,1,0,0,0,0
1784437,521,1,0,0,0,0
1784445,510,1,0,0,0,0
1784453,512,1,0,0,0,0
1784461,518,1,0,0,0,0
1784469,520,1,0,0,0,0
1784477,518,1,0,0,0,0
1784485,514,1,0,0,0,0
1784493,519,1,0,0,0,0
1784501,513,1,0,0,0,0
1784509,514,1,0,0,0,0
1784517,518,1,0,0,0,0
1784525,516,1,0,0,0,0
1784533,516,1,0,0,0,0
1784541,514,1,0,0,0,0
1784549,516,1,0,0,0,0
1784557,523,1,0,0,0,0
1784565,522,1,0,0,0,0
1784573,520,1,0,0,0,0
1784581,519,1,0,0,0,0
1784589,521,1,0,0,0,0
1784597,528,1,0,0,0,0
1784605,526,1,0,0,0,0
1784613,533,1,0,0,0,0
1784621,535,1,0,0,0,0
1784629,529,1,0,0,0,0
1784637,533,1,0,0,0,0
1784645,529,1,0,0,0,0
1784654,536,1,0,0,0,0
1784662,535,1,0,0,0,0
1784670,535,1,0,0,0,0
1784678,538,1,0,0,0,0
1784686,533,1,0,0,0,0
1784694,532,1,0,0,0,0
1784702,541,1,0,0,0,0
1784710,543,1,0,0,0,0
1784718,541,1,0,0,0,0
1784726,532,1,0,0,0,0
1784734,545,1,0,0,0,0
1784742,542,1,0,0,0,0
1784750,542,1,0,0,0,0
1784758,545,1,0,0,0,0
1784766,537,1,0,0,0,0
1784774,535,1,0,0,0,0
1784782,541,1,0,0,0,0
1784790,542,1,0,0,0,0
1784798,542,1,0,0,0,0
1784806,534,1,0,0,0,0
1784814,535,1,0,0,0,0
1784822,536,1,0,0,0,0
1784830,542,1,0,0,0,0
1784838,542,1,0,0,0,0
1784846,534,1,0,0,0,0
1784854,537,1,0,0,0,0
1784862,537,1,0,0,0,0
1784870,535,1,0,0,0,0
1784878,541,1,0,0,0,0
1784886,543,1,0,0,0,0
1784894,554,1,0,0,0,0
1784902,562,1,0,0,0,0
1784910,557,1,0,0,0,0
1784918,552,1,0,0,0,0
1784926,546,1,0,0,0,0
1784934,537,1,0,0,0,0
1784942,534,1,0,0,0,0
1784950,534,1,0,0,0,0
1784958,536,1,0,0,0,0
1784966,536,1,0,0,0,0
1784974,540,1,0,0,0,0
1784982,522,1,0,0,0,0
1784990,476,1,0,0,0,0
1784998,391,1,0,0,0,0
1785006,381,1,0,0,0,0
1785014,569,1,0,0,0,0
1785022,853,1,0,0,0,0
1785030,706,1,0,0,0,0
1785038,533,1,0,0,0,0
1785046,655,1,0,0,0,0
1785054,676,1,0,0,0,0
1785062,573,1,0,0,0,0
1785070,514,1,0,0,0,0
1785078,509,1,0,0,0,0
1785086,506,1,0,0,0,0
1785094,508,1,0,0,0,0
1785102,506,1,0,0,0,0
1785110,505,1,0,0,0,0
1785118,508,1,0,0,0,0
1785126,508,1,0,0,0,0
1785134,509,1,0,0,0,0
1785142,517,1,0,0,0,0
1785150,513,1,0,0,0,0
1785158,513,1,0,0,0,0
1785166,514,1,0,0,0,0
1785174,520,1,0,0,0,0
1785182,525,1,0,0,0,0
1785190,526,1,0,0,0,0
1785198,535,1,0,0,0,0
1785206,532,1,0,0,0,0
1785214,536,1,0,0,0,0
1785222,549,1,0,0,0,0
1785230,553,1,0,0,0,0
1785238,568,1,0,0,0,0
1785246,570,1,0,0,0,0
1785254,580,1,0,0,0,0
1785262,585,1,0,0,0,0
1785270,586,1,0,0,0,0
1785278,590,1,0,0,0,0
1785286,589,1,0,0,0,0
1785294,588,1,0,0,0,0
1785302,571,1,0,0,0,0
1785310,556,1,0,0,0,0
1785318,546,1,0,0,0,0
1785326,542,1,0,0,0,0
1785334,529,1,0,0,0,0
1785342,526,1,0,0,0,0
1785350,518,1,0,0,0,0
1785358,525,1,0,0,0,0
1785366,522,1,0,0,0,0
1785374,512,1,0,0,0,0
1785382,516,1,0,0,0,0
1785390,517,1,0,0,0,0
1785398,514,1,0,0,0,0
1785406,514,1,0,0,0,0
1785414,513,1,0,0,0,0
1785422,514,1,0,0,0,0
1785430,514,1,0,0,0,0
1785438,517,1,0,0,0,0
1785446,511,1,0,0,0,0
1785454,516,1,0,0,0,0
1785462,521,1,0,0,0,0
1785470,509,1,0,0,0,0
1785478,519,1,0,0,0,0
1785486,523,1,0,0,0,0
1785494,522,1,0,0,0,0
1785502,523,1,0,0,0,0
1785510,523,1,0,0,0,0
1785518,529,1,0,0,0,0
1785526,530,1,0,0,0,0
1785534,533,1,0,0,0,0
1785542,530,1,0,0,0,0
1785550,526,1,0,0,0,0
1785558,535,1,0,0,0,0
1785566,535,1,0,0,0,0
1785574,533,1,0,0,0,0
1785582,541,1,0,0,0,0
1785590,533,1,0,0,0,0
1785598,535,1,0,0,0,0
1785606,541,1,0,0,0,0
1785614,541,1,0,0,0,0
1785622,542,1,0,0,0,0
1785630,538,1,0,0,0,0
1785638,538,1,0,0,0,0
1785646,541,1,0,0,0,0
1785654,545,1,0,0,0,0
1785662,543,1,0,0,0,0
1785670,541,1,0,0,0,0
1785678,543,1,0,0,0,0
1785686,546,1,0,0,0,0
1785694,542,1,0,0,0,0
1785702,547,1,0,0,0,0
1785710,540,1,0,0,0,0
1785718,541,1,0,0,0,0
1785726,546,1,0,0,0,0
1785734,541,1,0,0,0,0
1785742,538,1,0,0,0,0
1785750,542,1,0,0,0,0
1785758,544,1,0,0,0,0
1785766,543,1,0,0,0,0
1785774,540,1,0,0,0,0
1785782,542,1,0,0,0,0
1785790,553,1,0,0,0,0
1785798,566,1,0,0,0,0
1785806,567,1,0,0,0,0
1785814,566,1,0,0,0,0
1785822,554,1,0,0,0,0
1785830,547,1,0,0,0,0
1785838,542,1,0,0,0,0
1785846,546,1,0,0,0,0
1785854,541,1,0,0,0,0
1785862,544,1,0,0,0,0
1785870,542,1,0,0,0,0
1785878,536,1,0,0,0,0
1785886,523,1,0,0,0,0
1785894,486,1,0,0,0,0
1785902,399,1,0,0,0,0
1785910,379,1,0,0,0,0
1785918,556,1,0,0,0,0
1785926,841,1,0,0,0,0
1785934,715,1,0,0,0,0
1785942,579,1,0,0,0,0
1785950,705,1,0,0,0,0
1785958,687,1,0,0,0,0
1785966,567,1,0,0,0,0
1785974,519,1,0,0,0,0
1785982,513,1,0,0,0,0
1785990,512,1,0,0,0,0
1785998,514,1,0,0,0,0
1786006,512,1,0,0,0,0
1786014,509,1,0,0,0,0
1786022,513,1,0,0,0,0
1786030,517,1,0,0,0,0
1786038,516,1,0,0,0,0
1786046,510,1,0,0,0,0
1786054,518,1,0,0,0,0
1786062,522,1,0,0,0,0
1786070,516,1,0,0,0,0
1786078,524,1,0,0,0,0
1786086,524,1,0,0,0,0
1786094,523,1,0,0,0,0
1786102,534,1,0,0,0,0
1786110,537,1,0,0,0,0
1786118,540,1,0,0,0,0
1786127,542,1,0,0,0,0
1786135,547,1,0,0,0,0
1786143,562,1,0,0,0,0
1786151,570,1,0,0,0,0
1786159,580,1,0,0,0,0
1786167,578,1,0,0,0,0
1786175,583,1,0,0,0,0
1786183,592,1,0,0,0,0
1786191,586,1,0,0,0,0
1786199,581,1,0,0,0,0
1786207,568,1,0,0,0,0
1786215,560,1,0,0,0,0
1786223,545,1,0,0,0,0
1786231,533,1,0,0,0,0
1786239,528,1,0,0,0,0
1786247,517,1,0,0,0,0
1786255,514,1,0,0,0,0
1786263,521,1,0,0,0,0
1786271,514,1,0,0,0,0
1786279,518,1,0,0,0,0
1786287,518,1,0,0,0,0
1786295,509,1,0,0,0,0
1786303,512,1,0,0,0,0
1786311,514,1,0,0,0,0
1786319,518,1,0,0,0,0
1786327,514,1,0,0,0,0
1786335,518,1,0,0,0,0
1786343,516,1,0,0,0,0
1786351,514,1,0,0,0,0
1786359,513,1,0,0,0,0
1786367,508,1,0,0,0,0
1786375,512,1,0,0,0,0
1786383,522,1,0,0,0,0
1786391,522,1,0,0,0,0
1786399,523,1,0,0,0,0
1786407,519,1,0,0,0,0
1786415,521,1,0,0,0,0
1786423,533,1,0,0,0,0
1786431,532,1,0,0,0,0
1786439,534,1,0,0,0,0
1786447,533,1,0,0,0,0
1786455,535,1,0,0,0,0
1786463,534,1,0,0,0,0
1786471,533,1,0,0,0,0
1786479,541,1,0,0,0,0
1786487,535,1,0,0,0,0
1786495,540,1,0,0,0,0
1786503,543,1,0,0,0,0
1786511,534,1,0,0,0,0
1786519,537,1,0,0,0,0
1786527,541,1,0,0,0,0
1786535,543,1,0,0,0,0
1786543,545,1,0,0,0,0
1786551,537,1,0,0,0,0
1786559,546,1,0,0,0,0
1786567,546,1,0,0,0,0
1786575,547,1,0,0,0,0
1786583,545,1,0,0,0,0
1786591,543,1,0,0,0,0
1786599,545,1,0,0,0,0
1786607,540,1,0,0,0,0
1786615,541,1,0,0,0,0
1786623,543,1,0,0,0,0
1786631,546,1,0,0,0,0
1786639,561,1,0,0,0,0
1786647,569,1,0,0,0,0
1786655,561,1,0,0,0,0
1786663,552,1,0,0,0,0
1786671,541,1,0,0,0,0
1786679,533,1,0,0,0,0
1786687,536,1,0,0,0,0
1786695,541,1,0,0,0,0
1786703,543,1,0,0,0,0
1786711,537,1,0,0,0,0
1786719,542,1,0,0,0,0
1786727,514,1,0,0,0,0
1786735,469,1,0,0,0,0
1786743,388,1,0,0,0,0
1786751,423,1,0,0,0,0
1786759,657,1,0,0,0,0
1786767,885,1,0,0,0,0
1786775,634,1,0,0,0,0
1786783,523,1,0,0,0,0
1786791,660,1,0,0,0,0
1786799,661,1,0,0,0,0
1786807,562,1,0,0,0,0
1786815,517,1,0,0,0,0
1786823,513,1,0,0,0,0
1786831,513,1,0,0,0,0
1786839,512,1,0,0,0,0
1786847,513,1,0,0,0,0
1786855,510,1,0,0,0,0
1786863,512,1,0,0,0,0
1786871,509,1,0,0,0,0
1786879,518,1,0,0,0,0
1786887,511,1,0,0,0,0
1786895,517,1,0,0,0,0
1786903,523,1,0,0,0,0
1786911,522,1,0,0,0,0
1786919,522,1,0,0,0,0
1786927,529,1,0,0,0,0
1786935,526,1,0,0,0,0
1786943,540,1,0,0,0,0
1786951,543,1,0,0,0,0
1786959,553,1,0,0,0,0
1786967,560,1,0,0,0,0
1786975,560,1,0,0,0,0
1786983,568,1,0,0,0,0
1786991,580,1,0,0,0,0
1786999,589,1,0,0,0,0
1787007,594,1,0,0,0,0
1787015,596,1,0,0,0,0
1787023,601,1,0,0,0,0
1787031,597,1,0,0,0,0
1787039,584,1,0,0,0,0
1787047,571,1,0,0,0,0
1787055,555,1,0,0,0,0
1787063,550,1,0,0,0,0
1787071,536,1,0,0,0,0
1787079,530,1,0,0,0,0
1787087,526,1,0,0,0,0
1787095,519,1,0,0,0,0
1787103,524,1,0,0,0,0
1787111,522,1,0,0,0,0
1787119,523,1,0,0,0,0
1787127,522,1,0,0,0,0
1787135,521,1,0,0,0,0
1787143,523,1,0,0,0,0
1787151,516,1,0,0,0,0
1787159,514,1,0,0,0,0
1787167,517,1,0,0,0,0
1787175,511,1,0,0,0,0
1787183,522,1,0,0,0,0
1787191,514,1,0,0,0,0
1787199,518,1,0,0,0,0
1787207,521,1,0,0,0,0
1787215,523,1,0,0,0,0
1787223,525,1,0,0,0,0
1787231,522,1,0,0,0,0
1787239,529,1,0,0,0,0
1787247,531,1,0,0,0,0
1787255,526,1,0,0,0,0
1787263,536,1,0,0,0,0
1787271,535,1,0,0,0,0
1787279,532,1,0,0,0,0
1787287,535,1,0,0,0,0
1787295,535,1,0,0,0,0
1787303,535,1,0,0,0,0
1787311,533,1,0,0,0,0
1787319,541,1,0,0,0,0
1787327,544,1,0,0,0,0
1787335,543,1,0,0,0,0
1787343,544,1,0,0,0,0
1787351,543,1,0,0,0,0
1787359,543,1,0,0,0,0
1787367,550,1,0,0,0,0
1787375,545,1,0,0,0,0
1787383,550,1,0,0,0,0
1787391,543,1,0,0,0,0
1787399,547,1,0,0,0,0
1787407,545,1,0,0,0,0
1787415,546,1,0,0,0,0
1787423,546,1,0,0,0,0
1787431,542,1,0,0,0,0
1787439,545,1,0,0,0,0
1787447,557,1,0,0,0,0
1787455,572,1,0,0,0,0
1787463,576,1,0,0,0,0
1787471,568,1,0,0,0,0
1787479,557,1,0,0,0,0
1787487,553,1,0,0,0,0
1787495,543,1,0,0,0,0
1787503,549,1,0,0,0,0
1787511,545,1,0,0,0,0
1787519,545,1,0,0,0,0
1787527,543,1,0,0,0,0
1787535,541,1,0,0,0,0
1787543,536,1,0,0,0,0
1787552,495,1,0,0,0,0
1787560,404,1,0,0,0,0
1787568,390,1,0,0,0,0
1787576,568,1,0,0,0,0
1787584,862,1,0,0,0,0
1787592,730,1,0,0,0,0
1787600,574,1,0,0,0,0
1787608,689,1,0,0,0,0
1787616,676,1,0,0,0,0
1787624,573,1,0,0,0,0
1787632,520,1,0,0,0,0
1787640,509,1,0,0,0,0
1787648,513,1,0,0,0,0
1787656,506,1,0,0,0,0
1787664,514,1,0,0,0,0
1787672,513,1,0,0,0,0
1787680,508,1,0,0,0,0
1787688,512,1,0,0,0,0
1787696,509,1,0,0,0,0
1787704,514,1,0,0,0,0
1787712,514,1,0,0,0,0
1787720,520,1,0,0,0,0
1787728,522,1,0,0,0,0
1787736,517,1,0,0,0,0
1787744,521,1,0,0,0,0
1787752,525,1,0,0,0,0
1787760,526,1,0,0,0,0
1787768,529,1,0,0,0,0
1787776,536,1,0,0,0,0
1787784,545,1,0,0,0,0
1787792,552,1,0,0,0,0
1787800,560,1,0,0,0,0
1787808,572,1,0,0,0,0
1787816,572,1,0,0,0,0
1787824,584,1,0,0,0,0
1787832,588,1,0,0,0,0
1787840,588,1,0,0,0,0
1787848,590,1,0,0,0,0
1787856,585,1,0,0,0,0
1787864,570,1,0,0,0,0
1787872,547,1,0,0,0,0
1787880,542,1,0,0,0,0
1787888,534,1,0,0,0,0
1787896,521,1,0,0,0,0
1787904,519,1,0,0,0,0
1787912,513,1,0,0,0,0
1787920,517,1,0,0,0,0
1787928,519,1,0,0,0,0
1787936,514,1,0,0,0,0
1787944,513,1,0,0,0,0
1787952,512,1,0,0,0,0
1787960,513,1,0,0,0,0
1787968,512,1,0,0,0,0
1787976,512,1,0,0,0,0
1787984,516,1,0,0,0,0
1787992,514,1,0,0,0,0
1788000,519,1,0,0,0,0
1788008,516,1,0,0,0,0
1788016,516,1,0,0,0,0
1788024,520,1,0,0,0,0
1788032,519,1,0,0,0,0
1788040,523,1,0,0,0,0
1788048,521,1,0,0,0,0
1788056,522,1,0,0,0,0
1788064,526,1,0,0,0,0
1788072,526,1,0,0,0,0
1788080,528,1,0,0,0,0
1788088,532,1,0,0,0,0
1788096,533,1,0,0,0,0
1788104,538,1,0,0,0,0
1788112,536,1,0,0,0,0
1788120,534,1,0,0,0,0
1788128,538,1,0,0,0,0
1788136,534,1,0,0,0,0
1788144,541,1,0,0,0,0
1788152,538,1,0,0,0,0
1788160,541,1,0,0,0,0
1788168,543,1,0,0,0,0
1788176,541,1,0,0,0,0
1788184,541,1,0,0,0,0
1788192,542,1,0,0,0,0
1788200,541,1,0,0,0,0
1788208,543,1,0,0,0,0
1788216,541,1,0,0,0,0
1788224,543,1,0,0,0,0
1788232,541,1,0,0,0,0
1788240,542,1,0,0,0,0
1788248,545,1,0,0,0,0
1788256,542,1,0,0,0,0
1788264,541,1,0,0,0,0
1788272,545,1,0,0,0,0
1788280,545,1,0,0,0,0
1788288,541,1,0,0,0,0
1788296,542,1,0,0,0,0
1788304,560,1,0,0,0,0
1788312,568,1,0,0,0,0
1788320,566,1,0,0,0,0
1788328,556,1,0,0,0,0
1788336,550,1,0,0,0,0
1788344,547,1,0,0,0,0
1788352,541,1,0,0,0,0
1788360,536,1,0,0,0,0
1788368,535,1,0,0,0,0
1788376,542,1,0,0,0,0
1788384,543,1,0,0,0,0
1788392,538,1,0,0,0,0
1788400,514,1,0,0,0,0
1788408,471,1,0,0,0,0
1788416,384,1,0,0,0,0
1788424,405,1,0,0,0,0
1788432,637,1,0,0,0,0
1788440,867,1,0,0,0,0
1788448,645,1,0,0,0,0
1788456,585,1,0,0,0,0
1788464,693,1,0,0,0,0
1788472,645,1,0,0,0,0
1788480,541,1,0,0,0,0
1788488,513,1,0,0,0,0
1788496,505,1,0,0,0,0
1788504,511,1,0,0,0,0
