timestamp_ms,value,lead_ok,ax100,ay100,az100,motion_flag
1402142,1024,1,0,0,0,0
1402150,1024,0,0,0,0,0
1402158,1024,1,0,0,0,0
1402166,914,0,0,0,0,0
1402174,1024,1,0,0,0,0
1402182,1024,1,0,0,0,0
1402190,1024,0,0,0,0,0
1402198,1024,1,0,0,0,0
1402206,914,0,0,0,0,0
1402214,1024,1,0,0,0,0
1402222,1024,1,0,0,0,0
1402230,1024,0,0,0,0,0
1402238,1024,1,0,0,0,0
1402246,909,0,0,0,0,0
1402254,1024,1,0,0,0,0
1402262,1024,1,0,0,0,0
1402270,1024,0,0,0,0,0
1402278,1024,1,0,0,0,0
1402286,906,0,0,0,0,0
1402294,1024,1,0,0,0,0
1402302,1024,1,0,0,0,0
1402310,1024,0,0,0,0,0
1402318,1024,1,0,0,0,0
1402326,907,0,0,0,0,0
1402334,1024,1,0,0,0,0
1402342,1024,1,0,0,0,0
1402350,1024,0,0,0,0,0
1402358,1024,1,0,0,0,0
1402366,901,0,0,0,0,0
1402374,1024,1,0,0,0,0
1402382,1024,1,0,0,0,0
1402390,1024,0,0,0,0,0
1402398,1024,1,0,0,0,0
1402406,908,0,0,0,0,0
1402414,1024,1,0,0,0,0
1402422,1024,1,0,0,0,0
1402430,1024,0,0,0,0,0
1402438,1024,1,0,0,0,0
1402446,902,0,0,0,0,0
1402454,1024,1,0,0,0,0
1402462,1024,1,0,0,0,0
1402470,1024,0,0,0,0,0
1402478,1024,1,0,0,0,0
1402486,898,0,0,0,0,0
1402494,1024,1,0,0,0,0
1402502,1024,1,0,0,0,0
1402510,1024,0,0,0,0,0
1402518,1024,1,0,0,0,0
1402526,889,0,0,0,0,0
1402534,1024,1,0,0,0,0
1402542,1024,1,0,0,0,0
1402550,1024,0,0,0,0,0
1402558,1024,1,0,0,0,0
1402566,885,0,0,0,0,0
1402574,1024,1,0,0,0,0
1402582,1024,1,0,0,0,0
1402590,1024,0,0,0,0,0
1402598,1024,1,0,0,0,0
1402606,878,0,0,0,0,0
1402614,1024,1,0,0,0,0
1402622,1024,1,0,0,0,0
1402630,1024,0,0,0,0,0
1402638,1024,1,0,0,0,0
1402646,919,0,0,0,0,0
1402654,1024,1,0,0,0,0
1402662,1024,1,0,0,0,0
1402670,1024,0,0,0,0,0
1402678,1024,1,0,0,0,0
1402686,845,0,0,0,0,0
1402694,1024,1,0,0,0,0
1402702,1024,1,0,0,0,0
1402710,1024,0,0,0,0,0
1402718,1024,1,0,0,0,0
1402726,895,0,0,0,0,0
1402734,1024,1,0,0,0,0
1402742,1024,1,0,0,0,0
1402750,1024,0,0,0,0,0
1402758,1024,1,0,0,0,0
1402766,896,0,0,0,0,0
1402774,1024,1,0,0,0,0
1402782,1024,1,0,0,0,0
1402790,1024,0,0,0,0,0
1402798,1024,1,0,0,0,0
1402806,894,0,0,0,0,0
1402814,1024,1,0,0,0,0
1402822,1024,1,0,0,0,0
1402830,1024,0,0,0,0,0
1402838,1024,1,0,0,0,0
1402846,894,0,0,0,0,0
1402854,1024,1,0,0,0,0
1402862,1024,1,0,0,0,0
1402870,1024,0,0,0,0,0
1402878,1024,1,0,0,0,0
1402886,871,0,0,0,0,0
1402894,1024,1,0,0,0,0
1402902,1024,1,0,0,0,0
1402910,1024,0,0,0,0,0
1402918,1024,1,0,0,0,0
1402926,867,0,0,0,0,0
1402934,1024,1,0,0,0,0
1402942,1024,1,0,0,0,0
1402950,1024,0,0,0,0,0
1402958,1024,1,0,0,0,0
1402966,900,0,0,0,0,0
1402974,1024,1,0,0,0,0
1402982,1024,1,0,0,0,0
1402990,1024,0,0,0,0,0
1402998,1024,1,0,0,0,0
1403006,905,0,0,0,0,0
1403014,1024,1,0,0,0,0
1403022,1024,1,0,0,0,0
1403030,1024,0,0,0,0,0
1403038,1024,1,0,0,0,0
1403046,902,0,0,0,0,0
1403054,1024,1,0,0,0,0
1403062,1024,1,0,0,0,0
1403070,1024,0,0,0,0,0
1403078,1024,1,0,0,0,0
1403086,896,0,0,0,0,0
1403094,1024,1,0,0,0,0
1403102,1024,1,0,0,0,0
1403110,1024,0,0,0,0,0
1403118,1024,1,0,0,0,0
1403126,896,0,0,0,0,0
1403134,1024,1,0,0,0,0
1403142,1024,1,0,0,0,0
1403150,1024,1,0,0,0,0
1403158,1024,1,0,0,0,0
1403166,902,0,0,0,0,0
1403174,1024,1,0,0,0,0
1403182,1024,1,0,0,0,0
1403190,1024,1,0,0,0,0
1403198,1024,1,0,0,0,0
1403206,906,0,0,0,0,0
1403214,1024,1,0,0,0,0
1403222,1024,1,0,0,0,0
1403230,1024,1,0,0,0,0
1403238,1024,1,0,0,0,0
1403246,907,0,0,0,0,0
1403254,1024,1,0,0,0,0
1403262,1024,1,0,0,0,0
1403270,1024,1,0,0,0,0
1403278,1024,1,0,0,0,0
1403286,903,0,0,0,0,0
1403294,1024,1,0,0,0,0
1403302,1024,1,0,0,0,0
1403310,1024,1,0,0,0,0
1403318,1024,1,0,0,0,0
1403326,906,0,0,0,0,0
1403334,1024,1,0,0,0,0
1403342,1024,1,0,0,0,0
1403350,1024,1,0,0,0,0
1403358,1024,1,0,0,0,0
1403366,918,0,0,0,0,0
1403374,1024,1,0,0,0,0
1403382,1024,1,0,0,0,0
1403390,1024,1,0,0,0,0
1403398,1024,1,0,0,0,0
1403406,921,0,0,0,0,0
1403414,1024,1,0,0,0,0
1403422,1021,1,0,0,0,0
1403430,1024,1,0,0,0,0
1403438,1024,1,0,0,0,0
1403446,932,0,0,0,0,0
1403454,1024,1,0,0,0,0
1403462,1024,1,0,0,0,0
1403470,1024,1,0,0,0,0
1403478,1024,1,0,0,0,0
1403486,953,0,0,0,0,0
1403494,1024,1,0,0,0,0
1403502,1008,1,0,0,0,0
1403510,1024,1,0,0,0,0
1403518,1024,1,0,0,0,0
1403526,881,0,0,0,0,0
1403534,1024,1,0,0,0,0
1403542,1016,1,0,0,0,0
1403550,1024,1,0,0,0,0
1403558,1024,1,0,0,0,0
1403566,948,0,0,0,0,0
1403574,1024,1,0,0,0,0
1403582,1017,1,0,0,0,0
1403590,1024,1,0,0,0,0
1403598,1024,1,0,0,0,0
1404431,1024,1,0,0,0,0
1404439,1024,1,0,0,0,0
1404447,1024,0,0,0,0,0
1404455,1024,1,0,0,0,0
1404463,928,0,0,0,0,0
1404455,1024,1,0,0,0,0
1404463,928,0,0,0,0,0
1404455,1024,1,0,0,0,0
1404463,928,0,0,0,0,0
1404471,1024,1,0,0,0,0
1404479,1024,1,0,0,0,0
1404487,1024,0,0,0,0,0
1404495,1024,1,0,0,0,0
1404503,922,0,0,0,0,0
1404511,1024,1,0,0,0,0
1404519,1024,1,0,0,0,0
1404527,1024,0,0,0,0,0
1404535,1024,1,0,0,0,0
1404543,903,0,0,0,0,0
1404551,1024,1,0,0,0,0
1404559,1024,1,0,0,0,0
1404567,1024,0,0,0,0,0
1404575,1024,1,0,0,0,0
1404583,914,0,0,0,0,0
1404591,1024,1,0,0,0,0
1404599,1024,1,0,0,0,0
1404607,1024,0,0,0,0,0
1404615,1024,1,0,0,0,0
1404623,916,0,0,0,0,0
1404631,1024,1,0,0,0,0
1404639,1024,1,0,0,0,0
1404647,1024,0,0,0,0,0
1404655,1024,1,0,0,0,0
1404663,916,0,0,0,0,0
1404671,1024,1,0,0,0,0
1404679,1024,1,0,0,0,0
1404687,1024,0,0,0,0,0
1404695,1024,1,0,0,0,0
1404703,919,0,0,0,0,0
1404711,1024,1,0,0,0,0
1404719,1024,1,0,0,0,0
1404727,1024,0,0,0,0,0
1404735,1024,1,0,0,0,0
1404743,914,0,0,0,0,0
1404751,1024,1,0,0,0,0
1404759,1024,1,0,0,0,0
1404767,1024,0,0,0,0,0
1404775,1024,1,0,0,0,0
1404783,907,0,0,0,0,0
1404791,1024,1,0,0,0,0
1404799,1024,1,0,0,0,0
1404807,1024,0,0,0,0,0
1404815,1024,1,0,0,0,0
1404823,902,0,0,0,0,0
1404831,1024,1,0,0,0,0
1404839,1024,1,0,0,0,0
1404847,1024,0,0,0,0,0
1404855,1024,1,0,0,0,0
1404863,902,0,0,0,0,0
1404871,1024,1,0,0,0,0
1404879,1024,1,0,0,0,0
1404887,1024,0,0,0,0,0
1404895,1024,1,0,0,0,0
1404903,888,0,0,0,0,0
1404911,1024,1,0,0,0,0
1404919,1024,1,0,0,0,0
1404927,1024,0,0,0,0,0
1404935,1024,1,0,0,0,0
1404943,881,0,0,0,0,0
1404951,1024,1,0,0,0,0
1404959,1024,1,0,0,0,0
1404967,1024,0,0,0,0,0
1404975,1024,1,0,0,0,0
1404983,897,0,0,0,0,0
1404991,1024,1,0,0,0,0
1404999,1024,1,0,0,0,0
1405007,1024,0,0,0,0,0
1405015,1024,1,0,0,0,0
1405023,897,0,0,0,0,0
1405031,1024,1,0,0,0,0
1405039,1024,1,0,0,0,0
1405047,1024,0,0,0,0,0
1405055,1024,1,0,0,0,0
1405063,813,0,0,0,0,0
1405071,1024,1,0,0,0,0
1405079,1024,1,0,0,0,0
1405087,1024,0,0,0,0,0
1405095,1024,1,0,0,0,0
1405103,873,0,0,0,0,0
1405111,1024,1,0,0,0,0
1405119,1024,1,0,0,0,0
1405127,1024,0,0,0,0,0
1405135,1024,1,0,0,0,0
1405143,886,0,0,0,0,0
1405151,1024,1,0,0,0,0
1405159,1024,1,0,0,0,0
1405167,1024,0,0,0,0,0
1405175,1024,1,0,0,0,0
1405183,894,0,0,0,0,0
1405191,1024,1,0,0,0,0
1405199,1024,1,0,0,0,0
1405207,1024,0,0,0,0,0
1405215,1024,1,0,0,0,0
1405223,891,0,0,0,0,0
1405231,1024,1,0,0,0,0
1405239,1024,1,0,0,0,0
1405247,1024,0,0,0,0,0
1405255,1024,1,0,0,0,0
1405263,883,0,0,0,0,0
1405271,1024,1,0,0,0,0
1405279,1024,1,0,0,0,0
1405287,1024,0,0,0,0,0
1405295,1024,1,0,0,0,0
1405303,870,0,0,0,0,0
1405311,1024,1,0,0,0,0
1405319,1024,1,0,0,0,0
1405327,1024,0,0,0,0,0
1405335,1024,1,0,0,0,0
1405343,870,0,0,0,0,0
1405351,1024,1,0,0,0,0
1405359,1024,1,0,0,0,0
1405367,1024,0,0,0,0,0
1405375,1024,1,0,0,0,0
1405383,886,0,0,0,0,0
1405391,1024,1,0,0,0,0
1405399,1024,1,0,0,0,0
1405407,1024,0,0,0,0,0
1405415,1024,1,0,0,0,0
1405423,886,0,0,0,0,0
1405431,1024,1,0,0,0,0
1405439,1024,1,0,0,0,0
1405447,1024,0,0,0,0,0
1405455,1024,1,0,0,0,0
1405463,895,0,0,0,0,0
1405471,1024,1,0,0,0,0
1405479,1024,1,0,0,0,0
1405487,1024,0,0,0,0,0
1405495,1024,1,0,0,0,0
1405503,896,0,0,0,0,0
1405511,1024,1,0,0,0,0
1405519,1024,1,0,0,0,0
1405527,1024,0,0,0,0,0
1405535,1024,1,0,0,0,0
1405543,883,0,0,0,0,0
1405551,1024,1,0,0,0,0
1405559,1024,1,0,0,0,0
1405567,1024,0,0,0,0,0
1405575,1024,1,0,0,0,0
1405583,888,0,0,0,0,0
1405591,1024,1,0,0,0,0
1405599,1024,1,0,0,0,0
1405607,1024,0,0,0,0,0
1405615,1024,1,0,0,0,0
1405623,891,0,0,0,0,0
1405631,1024,1,0,0,0,0
1405639,1024,1,0,0,0,0
1405647,1024,0,0,0,0,0
1405655,1024,1,0,0,0,0
1405663,886,0,0,0,0,0
1405671,1024,1,0,0,0,0
1405679,1024,1,0,0,0,0
1405687,1024,0,0,0,0,0
1405695,1024,1,0,0,0,0
1405703,900,0,0,0,0,0
1405711,1024,1,0,0,0,0
1405719,1024,1,0,0,0,0
1405727,1024,0,0,0,0,0
1405735,1024,1,0,0,0,0
1405743,883,0,0,0,0,0
1405751,1024,1,0,0,0,0
1405759,1024,1,0,0,0,0
1405767,1024,0,0,0,0,0
1405775,1024,1,0,0,0,0
1405783,894,0,0,0,0,0
1405791,1024,1,0,0,0,0
1405799,1024,1,0,0,0,0
1405807,1024,1,0,0,0,0
1405815,1024,1,0,0,0,0
1405823,914,0,0,0,0,0
1405831,1024,1,0,0,0,0
1405839,1024,1,0,0,0,0
1405847,1024,1,0,0,0,0
1405855,1024,1,0,0,0,0
1405863,882,0,0,0,0,0
1405871,1024,1,0,0,0,0
1405879,1016,1,0,0,0,0
1405887,1024,1,0,0,0,0
1405895,1024,1,0,0,0,0
1405903,903,0,0,0,0,0
1405911,1024,1,0,0,0,0
1405919,1024,1,0,0,0,0
1405927,1024,1,0,0,0,0
1405935,1024,1,0,0,0,0
1405943,896,0,0,0,0,0
1405951,1024,1,0,0,0,0
1405959,1024,1,0,0,0,0
1405967,1024,1,0,0,0,0
1405975,1024,1,0,0,0,0
1405983,907,0,0,0,0,0
1405991,1024,1,0,0,0,0
1405999,1024,1,0,0,0,0
1406007,1024,1,0,0,0,0
1406015,1024,1,0,0,0,0
1406023,901,0,0,0,0,0
1406031,1024,1,0,0,0,0
1406039,1024,1,0,0,0,0
1406047,1024,1,0,0,0,0
1406055,1024,1,0,0,0,0
1406063,889,0,0,0,0,0
1406071,1024,1,0,0,0,0
1406079,1017,1,0,0,0,0
1406087,1024,1,0,0,0,0
1406095,1024,1,0,0,0,0
1406103,879,0,0,0,0,0
1406111,1024,1,0,0,0,0
1406119,1011,1,0,0,0,0
1406127,1024,1,0,0,0,0
1406135,1024,1,0,0,0,0
1406143,895,0,0,0,0,0
1406151,1024,1,0,0,0,0
1406159,1014,1,0,0,0,0
1406167,1024,1,0,0,0,0
1406175,1024,1,0,0,0,0
1406183,909,0,0,0,0,0
1406191,1024,1,0,0,0,0
1406199,1014,1,0,0,0,0
1406207,1024,1,0,0,0,0
1406215,1024,1,0,0,0,0
1406223,927,0,0,0,0,0
1406231,1024,1,0,0,0,0
1406239,1017,1,0,0,0,0
1406247,1024,1,0,0,0,0
1406255,1024,1,0,0,0,0
1406263,938,0,0,0,0,0
1406271,1024,1,0,0,0,0
1406279,1018,1,0,0,0,0
1406287,1024,1,0,0,0,0
1406295,1024,1,0,0,0,0
1406303,934,0,0,0,0,0
1406311,1024,1,0,0,0,0
1406319,1015,1,0,0,0,0
1406327,1024,1,0,0,0,0
1406335,1024,1,0,0,0,0
1406343,932,0,0,0,0,0
1406351,1024,1,0,0,0,0
1406359,1005,1,0,0,0,0
1406367,1024,1,0,0,0,0
1406375,1024,1,0,0,0,0
1406383,922,0,0,0,0,0
1406391,1024,1,0,0,0,0
1406399,1000,1,0,0,0,0
1406407,1024,1,0,0,0,0
1406415,1024,1,0,0,0,0
1406423,926,0,0,0,0,0
1406431,1024,1,0,0,0,0
1406439,994,1,0,0,0,0
1406447,1024,1,0,0,0,0
1406455,1024,1,0,0,0,0
1406463,921,0,0,0,0,0
1406471,1024,1,0,0,0,0
1406479,989,1,0,0,0,0
1406487,1024,1,0,0,0,0
1406495,1024,1,0,0,0,0
1406503,930,0,0,0,0,0
1406511,1024,1,0,0,0,0
1406519,994,1,0,0,0,0
1406527,1024,1,0,0,0,0
1406535,1024,1,0,0,0,0
1406543,939,0,0,0,0,0
1406551,1024,1,0,0,0,0
1406559,987,1,0,0,0,0
1406567,1024,1,0,0,0,0
1406575,1024,1,0,0,0,0
1406583,928,0,0,0,0,0
1406591,1024,1,0,0,0,0
1406599,937,1,0,0,0,0
1406607,1024,1,0,0,0,0
1406615,1024,1,0,0,0,0
1406623,913,0,0,0,0,0
1406631,1024,1,0,0,0,0
1406639,974,1,0,0,0,0
1406647,1024,1,0,0,0,0
1406655,1024,1,0,0,0,0
1406663,965,0,0,0,0,0
1406671,1024,1,0,0,0,0
1406679,982,1,0,0,0,0
1406687,1024,1,0,0,0,0
1406695,1024,1,0,0,0,0
1406703,982,0,0,0,0,0
1406711,1024,1,0,0,0,0
1406719,987,1,0,0,0,0
1406727,1024,1,0,0,0,0
1406735,1024,1,0,0,0,0
1406743,980,0,0,0,0,0
1406751,1024,1,0,0,0,0
1406759,965,1,0,0,0,0
1406767,1024,1,0,0,0,0
1406775,1024,1,0,0,0,0
1406783,975,0,0,0,0,0
1406791,1024,1,0,0,0,0
1406799,962,1,0,0,0,0
1406807,1024,1,0,0,0,0
1406815,1024,1,0,0,0,0
1406823,957,0,0,0,0,0
1406831,1024,1,0,0,0,0
1406839,950,1,0,0,0,0
1406847,1024,1,0,0,0,0
1406855,1024,1,0,0,0,0
1406863,962,0,0,0,0,0
1406871,1024,1,0,0,0,0
1406879,960,1,0,0,0,0
1406887,1024,1,0,0,0,0
1406895,1024,1,0,0,0,0
1406903,996,0,0,0,0,0
1406911,1024,1,0,0,0,0
1406919,951,1,0,0,0,0
1406927,1024,1,0,0,0,0
1406935,1024,1,0,0,0,0
1406943,998,0,0,0,0,0
1406951,1024,1,0,0,0,0
1406959,949,1,0,0,0,0
1406967,1024,1,0,0,0,0
1406975,1024,1,0,0,0,0
1406983,1017,0,0,0,0,0
1406991,1024,1,0,0,0,0
1406999,950,1,0,0,0,0
1407007,1024,1,0,0,0,0
1407015,1024,1,0,0,0,0
1407023,1023,0,0,0,0,0
1407031,1024,1,0,0,0,0
1407039,951,1,0,0,0,0
1407047,1024,1,0,0,0,0
1407055,1024,1,0,0,0,0
1407063,1021,0,0,0,0,0
1407071,1024,1,0,0,0,0
1407079,949,1,0,0,0,0
1407087,1024,1,0,0,0,0
1407095,1024,1,0,0,0,0
1407103,1024,0,0,0,0,0
1407111,1024,1,0,0,0,0
1407120,933,1,0,0,0,0
1407128,1024,1,0,0,0,0
1407136,1024,1,0,0,0,0
1407144,1024,0,0,0,0,0
1407152,1024,1,0,0,0,0
1407160,932,1,0,0,0,0
1407168,1024,1,0,0,0,0
1407176,1024,1,0,0,0,0
1407184,1024,0,0,0,0,0
1407192,1024,1,0,0,0,0
1407200,925,0,0,0,0,0
1407208,1024,1,0,0,0,0
1407216,1024,1,0,0,0,0
1407224,1024,0,0,0,0,0
1407232,1024,1,0,0,0,0
1407240,921,0,0,0,0,0
1407248,1024,1,0,0,0,0
1407256,1024,1,0,0,0,0
1407264,1024,0,0,0,0,0
1407272,1024,1,0,0,0,0
1407280,919,0,0,0,0,0
1407288,1024,1,0,0,0,0
1407296,1024,1,0,0,0,0
1407304,1024,0,0,0,0,0
1407312,1024,1,0,0,0,0
1407320,925,0,0,0,0,0
1407328,1024,1,0,0,0,0
1407336,1024,1,0,0,0,0
1407344,1024,0,0,0,0,0
1407352,1024,1,0,0,0,0
1407360,897,0,0,0,0,0
1407368,1024,1,0,0,0,0
1407376,1024,1,0,0,0,0
1407384,1024,0,0,0,0,0
1407392,1024,1,0,0,0,0
1407400,905,0,0,0,0,0
1407408,1024,1,0,0,0,0
1407416,1024,1,0,0,0,0
1407424,1024,0,0,0,0,0
1407432,1024,1,0,0,0,0
1407440,919,0,0,0,0,0
1407448,1024,1,0,0,0,0
1407456,1024,1,0,0,0,0
1407464,1024,0,0,0,0,0
1407472,1024,1,0,0,0,0
1407480,888,0,0,0,0,0
1407488,1024,1,0,0,0,0
1407496,1024,1,0,0,0,0
1407504,1024,0,0,0,0,0
1407512,1024,1,0,0,0,0
1407520,898,0,0,0,0,0
1407528,1024,1,0,0,0,0
1407536,1024,1,0,0,0,0
1407544,1024,0,0,0,0,0
1407552,1024,1,0,0,0,0
1407560,897,0,0,0,0,0
1407568,1024,1,0,0,0,0
1407576,1024,1,0,0,0,0
1407584,1024,0,0,0,0,0
1407592,1024,1,0,0,0,0
1407600,894,0,0,0,0,0
1407608,1024,1,0,0,0,0
1407616,1024,1,0,0,0,0
1407624,1024,0,0,0,0,0
1407632,1024,1,0,0,0,0
1407640,898,0,0,0,0,0
1407648,1024,1,0,0,0,0
1407656,1024,1,0,0,0,0
1407664,1024,0,0,0,0,0
1407672,1024,1,0,0,0,0
1407680,888,0,0,0,0,0
1407688,1024,1,0,0,0,0
1407696,1024,1,0,0,0,0
1407704,1024,0,0,0,0,0
1407712,1024,1,0,0,0,0
1407720,870,0,0,0,0,0
1407728,1024,1,0,0,0,0
1407736,1024,1,0,0,0,0
1407744,1024,0,0,0,0,0
1407752,1024,1,0,0,0,0
1407760,879,0,0,0,0,0
1407768,1024,1,0,0,0,0
1407776,1024,1,0,0,0,0
1407784,1024,0,0,0,0,0
1407792,1024,1,0,0,0,0
1407800,886,0,0,0,0,0
1407808,1024,1,0,0,0,0
1407816,1024,1,0,0,0,0
1407824,1024,0,0,0,0,0
1407832,1024,1,0,0,0,0
1407840,886,0,0,0,0,0
1407848,1024,1,0,0,0,0
1407856,1024,1,0,0,0,0
1407864,1024,0,0,0,0,0
1407872,1024,1,0,0,0,0
1407880,885,0,0,0,0,0
1407888,1024,1,0,0,0,0
1407896,1024,1,0,0,0,0
1407904,1024,0,0,0,0,0
1407912,1024,1,0,0,0,0
1407920,886,0,0,0,0,0
1407928,1024,1,0,0,0,0
1407936,1024,1,0,0,0,0
1407944,1024,0,0,0,0,0
1407952,1024,1,0,0,0,0
1407960,881,0,0,0,0,0
1407968,1024,1,0,0,0,0
1407976,1024,1,0,0,0,0
1407984,1024,0,0,0,0,0
1407992,1024,1,0,0,0,0
1408000,886,0,0,0,0,0
1408008,1024,1,0,0,0,0
1408016,1024,1,0,0,0,0
1408024,1024,0,0,0,0,0
1408032,1024,1,0,0,0,0
1408040,872,0,0,0,0,0
1408048,1024,1,0,0,0,0
1408056,1024,1,0,0,0,0
1408064,1024,0,0,0,0,0
1408072,1024,1,0,0,0,0
1408080,879,0,0,0,0,0
1408088,1024,1,0,0,0,0
1408096,1024,1,0,0,0,0
1408104,1024,0,0,0,0,0
1408112,1024,1,0,0,0,0
1408120,879,0,0,0,0,0
1408128,1024,1,0,0,0,0
1408136,1024,1,0,0,0,0
1408144,1024,0,0,0,0,0
1408152,1024,1,0,0,0,0
1408160,871,0,0,0,0,0
1408168,1024,1,0,0,0,0
1408176,1024,1,0,0,0,0
1408184,1024,0,0,0,0,0
1408192,1024,1,0,0,0,0
1408200,860,0,0,0,0,0
1408208,1024,1,0,0,0,0
1408216,1024,1,0,0,0,0
1408224,1024,0,0,0,0,0
1408232,1024,1,0,0,0,0
1408240,874,0,0,0,0,0
1408248,1024,1,0,0,0,0
1408256,1024,1,0,0,0,0
1408264,1024,0,0,0,0,0
1408272,1024,1,0,0,0,0
1408280,902,0,0,0,0,0
1408288,1024,1,0,0,0,0
1408296,1024,1,0,0,0,0
1408304,1024,0,0,0,0,0
1408312,1024,1,0,0,0,0
1408320,842,0,0,0,0,0
1408328,1024,1,0,0,0,0
1408336,1024,1,0,0,0,0
1408344,1024,0,0,0,0,0
1408352,1024,1,0,0,0,0
1408360,866,0,0,0,0,0
1408368,1024,1,0,0,0,0
1408376,1024,1,0,0,0,0
1408384,1024,0,0,0,0,0
1408392,1024,1,0,0,0,0
1408400,878,0,0,0,0,0
1408408,1024,1,0,0,0,0
1408416,1024,1,0,0,0,0
1408424,1024,0,0,0,0,0
1408432,1024,1,0,0,0,0
1408440,880,0,0,0,0,0
1408448,1024,1,0,0,0,0
1408456,1024,1,0,0,0,0
1408464,1024,0,0,0,0,0
1408472,1024,1,0,0,0,0
1408480,884,0,0,0,0,0
1408488,1024,1,0,0,0,0
1408496,1024,1,0,0,0,0
1408504,1024,0,0,0,0,0
1408512,1024,1,0,0,0,0
1408520,873,0,0,0,0,0
1408528,1024,1,0,0,0,0
1408536,1024,1,0,0,0,0
1408544,1024,0,0,0,0,0
1408552,1024,1,0,0,0,0
1408560,861,0,0,0,0,0
1408568,1024,1,0,0,0,0
1408576,1024,1,0,0,0,0
1408584,1024,0,0,0,0,0
1408592,1024,1,0,0,0,0
1408600,870,0,0,0,0,0
1408608,1024,1,0,0,0,0
1408616,1024,1,0,0,0,0
1408624,1024,0,0,0,0,0
1408632,1024,1,0,0,0,0
1408640,885,0,0,0,0,0
1408648,1024,1,0,0,0,0
1408656,1024,1,0,0,0,0
1408664,1024,0,0,0,0,0
1408672,1024,1,0,0,0,0
1408680,895,0,0,0,0,0
1408688,1024,1,0,0,0,0
1408696,1024,1,0,0,0,0
1408704,1024,0,0,0,0,0
1408712,1024,1,0,0,0,0
1408720,894,0,0,0,0,0
1408728,1024,1,0,0,0,0
1408736,1024,1,0,0,0,0
1408744,1024,0,0,0,0,0
1408752,1024,1,0,0,0,0
1408760,902,0,0,0,0,0
1408768,1024,1,0,0,0,0
1408776,1024,1,0,0,0,0
1408784,1024,1,0,0,0,0
1408792,1024,1,0,0,0,0
1408800,894,0,0,0,0,0
1408808,1024,1,0,0,0,0
1408816,1024,1,0,0,0,0
1408824,1024,1,0,0,0,0
1408832,1024,1,0,0,0,0
1408840,890,0,0,0,0,0
1408848,1024,1,0,0,0,0
1408856,1024,1,0,0,0,0
1408864,1024,1,0,0,0,0
1408872,1024,1,0,0,0,0
1408880,895,0,0,0,0,0
1408888,1024,1,0,0,0,0
1408896,1024,1,0,0,0,0
1408904,1024,1,0,0,0,0
1408912,1024,1,0,0,0,0
1408920,905,0,0,0,0,0
1408928,1024,1,0,0,0,0
1408936,1024,1,0,0,0,0
1408944,1024,1,0,0,0,0
1408952,1024,1,0,0,0,0
1408960,898,0,0,0,0,0
1408968,1024,1,0,0,0,0
1408976,1022,1,0,0,0,0
1408984,1024,1,0,0,0,0
1408992,1024,1,0,0,0,0
1409000,898,0,0,0,0,0
1409008,1024,1,0,0,0,0
1409016,1022,1,0,0,0,0
1409024,1024,1,0,0,0,0
1409032,1024,1,0,0,0,0
1409040,906,0,0,0,0,0
1409048,1024,1,0,0,0,0
1409056,1024,1,0,0,0,0
1409064,1024,1,0,0,0,0
1409072,1024,1,0,0,0,0
1409080,907,0,0,0,0,0
1409088,1024,1,0,0,0,0
1409096,1021,1,0,0,0,0
1409104,1024,1,0,0,0,0
1409112,1024,1,0,0,0,0
1409120,904,0,0,0,0,0
1409128,1024,1,0,0,0,0
1409136,1016,1,0,0,0,0
1409144,1024,1,0,0,0,0
1409152,1024,1,0,0,0,0
1409160,900,0,0,0,0,0
1409168,1024,1,0,0,0,0
1409176,1013,1,0,0,0,0
1409184,1024,1,0,0,0,0
1409192,1024,1,0,0,0,0
1409200,933,0,0,0,0,0
1409208,1024,1,0,0,0,0
1409216,1024,1,0,0,0,0
1409224,1024,1,0,0,0,0
1409232,1024,1,0,0,0,0
1409240,823,0,0,0,0,0
1409248,1024,1,0,0,0,0
1409256,964,1,0,0,0,0
1409264,1024,1,0,0,0,0
1409272,1024,1,0,0,0,0
1409280,904,0,0,0,0,0
1409288,1024,1,0,0,0,0
1409296,1009,1,0,0,0,0
1409304,1024,1,0,0,0,0
1409312,1024,1,0,0,0,0
1409320,928,0,0,0,0,0
1409328,1024,1,0,0,0,0
1409336,1009,1,0,0,0,0
1409344,1024,1,0,0,0,0
1409352,1024,1,0,0,0,0
1409360,932,0,0,0,0,0
1409368,1024,1,0,0,0,0
1409376,1002,1,0,0,0,0
1409384,1024,1,0,0,0,0
1409392,1024,1,0,0,0,0
1409400,933,0,0,0,0,0
1409408,1024,1,0,0,0,0
1409416,1006,1,0,0,0,0
1409424,1024,1,0,0,0,0
1409432,1024,1,0,0,0,0
1409440,914,0,0,0,0,0
1409448,1024,1,0,0,0,0
1409456,991,1,0,0,0,0
1409464,1024,1,0,0,0,0
1409472,1024,1,0,0,0,0
1409480,914,0,0,0,0,0
1409488,1024,1,0,0,0,0
1409496,992,1,0,0,0,0
1409504,1024,1,0,0,0,0
1409512,1024,1,0,0,0,0
1409520,934,0,0,0,0,0
1409528,1024,1,0,0,0,0
1409536,999,1,0,0,0,0
1409544,1024,1,0,0,0,0
1409552,1024,1,0,0,0,0
1409560,944,0,0,0,0,0
1409568,1024,1,0,0,0,0
1409576,989,1,0,0,0,0
1409584,1024,1,0,0,0,0
1409592,1024,1,0,0,0,0
1409600,952,0,0,0,0,0
1409608,1024,1,0,0,0,0
1409616,993,1,0,0,0,0
1409624,1024,1,0,0,0,0
1409632,1024,1,0,0,0,0
1409640,956,0,0,0,0,0
1409648,1024,1,0,0,0,0
1409656,993,1,0,0,0,0
1409664,1024,1,0,0,0,0
1409672,1024,1,0,0,0,0
1409680,955,0,0,0,0,0
1409688,1024,1,0,0,0,0
1409696,982,1,0,0,0,0
1409704,1024,1,0,0,0,0
1409712,1024,1,0,0,0,0
1409720,970,0,0,0,0,0
1409728,1024,1,0,0,0,0
1409736,986,1,0,0,0,0
1409744,1024,1,0,0,0,0
1409752,1024,1,0,0,0,0
1409760,969,0,0,0,0,0
1409768,1024,1,0,0,0,0
1409776,972,1,0,0,0,0
1409784,1024,1,0,0,0,0
1409792,1024,1,0,0,0,0
1409800,965,0,0,0,0,0
1409808,1024,1,0,0,0,0
1409816,975,1,0,0,0,0
1409824,1024,1,0,0,0,0
1409832,1024,1,0,0,0,0
1409840,973,0,0,0,0,0
1409848,1024,1,0,0,0,0
1409856,964,1,0,0,0,0
1409864,1024,1,0,0,0,0
1409872,1024,1,0,0,0,0
1409880,985,0,0,0,0,0
1409888,1024,1,0,0,0,0
1409896,966,1,0,0,0,0
1409904,1024,1,0,0,0,0
1409912,1024,1,0,0,0,0
1409920,988,0,0,0,0,0
1409928,1024,1,0,0,0,0
1409936,956,1,0,0,0,0
1409944,1024,1,0,0,0,0
1409952,1024,1,0,0,0,0
1409960,970,0,0,0,0,0
1409968,1024,1,0,0,0,0
1409976,941,1,0,0,0,0
1409984,1024,1,0,0,0,0
1409993,1024,1,0,0,0,0
1410001,996,0,0,0,0,0
1410009,1024,1,0,0,0,0
1410017,952,1,0,0,0,0
1410025,1024,1,0,0,0,0
1410033,1024,1,0,0,0,0
1410041,1013,0,0,0,0,0
1410049,1024,1,0,0,0,0
1410057,954,1,0,0,0,0
1410065,1024,1,0,0,0,0
1410073,1024,1,0,0,0,0
1410081,994,0,0,0,0,0
1410089,1024,1,0,0,0,0
1410097,915,1,0,0,0,0
1410105,1024,1,0,0,0,0
1410113,1024,1,0,0,0,0
1410121,970,0,0,0,0,0
1410129,1024,1,0,0,0,0
1410137,939,1,0,0,0,0
1410145,1024,1,0,0,0,0
1410153,1024,1,0,0,0,0
1410161,1024,0,0,0,0,0
1410169,1024,1,0,0,0,0
1410177,942,1,0,0,0,0
1410185,1024,1,0,0,0,0
1410193,1024,1,0,0,0,0
1410201,1024,0,0,0,0,0
1410209,1024,1,0,0,0,0
1410217,945,1,0,0,0,0
1410225,1024,1,0,0,0,0
1410233,1024,1,0,0,0,0
1410241,1024,0,0,0,0,0
1410249,1024,1,0,0,0,0
1410257,932,1,0,0,0,0
1410265,1024,1,0,0,0,0
1410273,1024,1,0,0,0,0
1410281,1023,0,0,0,0,0
1410289,1024,1,0,0,0,0
1410297,924,0,0,0,0,0
1410305,1024,1,0,0,0,0
1410313,1024,1,0,0,0,0
1410321,1004,0,0,0,0,0
1410329,1024,1,0,0,0,0
1410337,902,0,0,0,0,0
1410345,1024,1,0,0,0,0
1410353,1024,1,0,0,0,0
1410361,1018,0,0,0,0,0
1410369,1024,1,0,0,0,0
1410377,906,0,0,0,0,0
1410385,1024,1,0,0,0,0
1410393,1024,1,0,0,0,0
1410401,1024,0,0,0,0,0
1410409,1024,1,0,0,0,0
1410417,916,0,0,0,0,0
1410425,1024,1,0,0,0,0
1410433,1024,1,0,0,0,0
1410441,1024,0,0,0,0,0
1410449,1024,1,0,0,0,0
1410457,926,0,0,0,0,0
1410465,1024,1,0,0,0,0
1410473,1024,1,0,0,0,0
1410481,1024,0,0,0,0,0
1410489,1024,1,0,0,0,0
1410497,932,0,0,0,0,0
1410505,1024,1,0,0,0,0
1410513,1024,1,0,0,0,0
1410521,1024,0,0,0,0,0
1410529,1024,1,0,0,0,0
1410537,916,0,0,0,0,0
1410545,1024,1,0,0,0,0
1410553,1024,1,0,0,0,0
1410561,1024,0,0,0,0,0
1410569,1024,1,0,0,0,0
1410577,905,0,0,0,0,0
1410585,1024,1,0,0,0,0
1410593,1024,1,0,0,0,0
1410601,1024,0,0,0,0,0
1410609,1024,1,0,0,0,0
1410617,907,0,0,0,0,0
1410625,1024,1,0,0,0,0
1410633,1024,1,0,0,0,0
1410641,1024,0,0,0,0,0
1410649,1024,1,0,0,0,0
1410657,898,0,0,0,0,0
1410665,1024,1,0,0,0,0
1410673,1024,1,0,0,0,0
1410681,1024,0,0,0,0,0
1410689,1024,1,0,0,0,0
1410697,902,0,0,0,0,0
1410705,1024,1,0,0,0,0
1410713,1024,1,0,0,0,0
1410721,1024,0,0,0,0,0
1410729,1024,1,0,0,0,0
1410737,895,0,0,0,0,0
1410745,1024,1,0,0,0,0
1410753,1024,1,0,0,0,0
1410761,1024,0,0,0,0,0
1410769,1024,1,0,0,0,0
1410777,905,0,0,0,0,0
1410785,1024,1,0,0,0,0
1410793,1024,1,0,0,0,0
1410801,1024,0,0,0,0,0
1410809,1024,1,0,0,0,0
1410817,895,0,0,0,0,0
1410825,1024,1,0,0,0,0
1410833,1024,1,0,0,0,0
1410841,1024,0,0,0,0,0
1410849,1024,1,0,0,0,0
1410857,893,0,0,0,0,0
1410865,1024,1,0,0,0,0
1410873,1024,1,0,0,0,0
1410881,1024,0,0,0,0,0
1410889,1024,1,0,0,0,0
1410897,883,0,0,0,0,0
1410905,1024,1,0,0,0,0
1410913,1024,1,0,0,0,0
1410921,1024,0,0,0,0,0
1410929,1024,1,0,0,0,0
1410937,890,0,0,0,0,0
1410945,1024,1,0,0,0,0
1410953,1024,1,0,0,0,0
1410961,1024,0,0,0,0,0
1410969,1024,1,0,0,0,0
1410977,888,0,0,0,0,0
1410985,1024,1,0,0,0,0
1410993,1024,1,0,0,0,0
1411001,1024,0,0,0,0,0
1411009,1024,1,0,0,0,0
1411017,811,0,0,0,0,0
1411025,1024,1,0,0,0,0
1411033,1024,1,0,0,0,0
1411041,1024,0,0,0,0,0
1411049,1024,1,0,0,0,0
1411057,871,0,0,0,0,0
1411065,1024,1,0,0,0,0
1411073,1024,1,0,0,0,0
1411081,1024,0,0,0,0,0
1411089,1024,1,0,0,0,0
1411097,882,0,0,0,0,0
1411105,1024,1,0,0,0,0
1411113,1024,1,0,0,0,0
1411121,1024,0,0,0,0,0
1411129,1024,1,0,0,0,0
1411137,879,0,0,0,0,0
1411145,1024,1,0,0,0,0
1411153,1024,1,0,0,0,0
1411161,1024,0,0,0,0,0
1411169,1024,1,0,0,0,0
1411177,873,0,0,0,0,0
1411185,1024,1,0,0,0,0
1411193,1024,1,0,0,0,0
1411201,1024,0,0,0,0,0
1411209,1024,1,0,0,0,0
1411217,872,0,0,0,0,0
1411225,1024,1,0,0,0,0
1411233,1024,1,0,0,0,0
1411241,1024,0,0,0,0,0
1411249,1024,1,0,0,0,0
1411257,856,0,0,0,0,0
1411265,1024,1,0,0,0,0
1411273,1024,1,0,0,0,0
1411281,1024,0,0,0,0,0
1411289,1024,1,0,0,0,0
1411297,865,0,0,0,0,0
1411305,1024,1,0,0,0,0
1411313,1024,1,0,0,0,0
1411321,1024,0,0,0,0,0
1411329,1024,1,0,0,0,0
1411337,878,0,0,0,0,0
1411345,1024,1,0,0,0,0
1411353,1024,1,0,0,0,0
1411361,1024,0,0,0,0,0
1411369,1024,1,0,0,0,0
1411377,868,0,0,0,0,0
1411385,1024,1,0,0,0,0
1411393,1024,1,0,0,0,0
1411401,1024,0,0,0,0,0
1411409,1024,1,0,0,0,0
1411417,876,0,0,0,0,0
1411425,1024,1,0,0,0,0
1411433,1024,1,0,0,0,0
1411441,1024,0,0,0,0,0
1411449,1024,1,0,0,0,0
1411457,872,0,0,0,0,0
1411465,1024,1,0,0,0,0
1411473,1024,1,0,0,0,0
1411481,1024,0,0,0,0,0
1411489,1024,1,0,0,0,0
1411497,869,0,0,0,0,0
1411505,1024,1,0,0,0,0
1411513,1024,1,0,0,0,0
1411521,1024,0,0,0,0,0
1411529,1024,1,0,0,0,0
1411537,868,0,0,0,0,0
1411545,1024,1,0,0,0,0
1411553,1024,1,0,0,0,0
1411561,1024,0,0,0,0,0
1411569,1024,1,0,0,0,0
1411577,871,0,0,0,0,0
1411585,1024,1,0,0,0,0
1411593,1024,1,0,0,0,0
1411601,1024,0,0,0,0,0
1411609,1024,1,0,0,0,0
1411617,846,0,0,0,0,0
1411625,1024,1,0,0,0,0
1411633,760,1,0,0,0,0
1411641,926,0,0,0,0,0
1411649,1024,1,0,0,0,0
1411657,631,0,0,0,0,0
1411665,1024,1,0,0,0,0
1411673,964,1,0,0,0,0
1411681,1024,0,0,0,0,0
1411689,1024,1,0,0,0,0
1411697,750,0,0,0,0,0
1411705,1024,1,0,0,0,0
1411713,1011,1,0,0,0,0
1411721,1024,0,0,0,0,0
1411729,1024,1,0,0,0,0
1411737,784,0,0,0,0,0
1411745,1024,1,0,0,0,0
1411753,1023,1,0,0,0,0
1411761,1024,0,0,0,0,0
1411769,1024,1,0,0,0,0
1411777,801,0,0,0,0,0
1411785,1024,1,0,0,0,0
1411793,1022,1,0,0,0,0
1411801,1024,0,0,0,0,0
1411809,1024,1,0,0,0,0
1411817,808,0,0,0,0,0
1411825,1024,1,0,0,0,0
1411833,1024,1,0,0,0,0
1411841,1024,0,0,0,0,0
1411849,1024,1,0,0,0,0
1411857,841,0,0,0,0,0
1411865,1024,1,0,0,0,0
1411873,975,1,0,0,0,0
1411881,1024,0,0,0,0,0
1411889,1024,1,0,0,0,0
1411897,810,0,0,0,0,0
1411905,1024,1,0,0,0,0
1411913,1015,1,0,0,0,0
1411921,1024,0,0,0,0,0
1411929,1024,1,0,0,0,0
1411937,833,0,0,0,0,0
1411945,1024,1,0,0,0,0
1411953,1024,1,0,0,0,0
1411961,1024,0,0,0,0,0
1411969,1024,1,0,0,0,0
1411977,835,0,0,0,0,0
1411985,1024,1,0,0,0,0
1411993,1018,1,0,0,0,0
1412001,1024,0,0,0,0,0
1412009,1024,1,0,0,0,0
1412017,846,0,0,0,0,0
1412025,1024,1,0,0,0,0
1412033,1024,1,0,0,0,0
1412041,1024,0,0,0,0,0
1412049,1024,1,0,0,0,0
1412057,840,0,0,0,0,0
1412065,1024,1,0,0,0,0
1412073,1018,1,0,0,0,0
1412081,1024,1,0,0,0,0
1412089,1024,1,0,0,0,0
1412097,823,0,0,0,0,0
1412105,1024,1,0,0,0,0
1412113,1010,1,0,0,0,0
1412121,1024,1,0,0,0,0
1412129,1024,1,0,0,0,0
1412137,822,0,0,0,0,0
1412145,1024,1,0,0,0,0
1412153,1009,1,0,0,0,0
1412161,1024,1,0,0,0,0
1412169,1024,1,0,0,0,0
1412177,842,0,0,0,0,0
1412185,1024,1,0,0,0,0
1412193,1014,1,0,0,0,0
1412201,1024,1,0,0,0,0
1412209,1024,1,0,0,0,0
1412217,858,0,0,0,0,0
1412225,1024,1,0,0,0,0
1412233,1009,1,0,0,0,0
1412241,1024,1,0,0,0,0
1412249,1024,1,0,0,0,0
1412257,856,0,0,0,0,0
1412265,1024,1,0,0,0,0
1412273,1013,1,0,0,0,0
1412281,1024,1,0,0,0,0
1412289,1024,1,0,0,0,0
1412297,866,0,0,0,0,0
1412305,1024,1,0,0,0,0
1412313,1017,1,0,0,0,0
1412321,1024,1,0,0,0,0
1412329,1024,1,0,0,0,0
1412337,868,0,0,0,0,0
1412345,1024,1,0,0,0,0
1412353,1011,1,0,0,0,0
1412361,1024,1,0,0,0,0
1412369,1024,1,0,0,0,0
1412377,866,0,0,0,0,0
1412385,1024,1,0,0,0,0
1412393,1004,1,0,0,0,0
1412401,1024,1,0,0,0,0
1412409,1024,1,0,0,0,0
1412417,873,0,0,0,0,0
1412425,1024,1,0,0,0,0
1412433,1004,1,0,0,0,0
1412441,1024,1,0,0,0,0
1412449,1024,1,0,0,0,0
1412457,879,0,0,0,0,0
1412465,1024,1,0,0,0,0
1412473,999,1,0,0,0,0
1412481,1024,1,0,0,0,0
1412489,1024,1,0,0,0,0
1412497,868,0,0,0,0,0
1412505,1024,1,0,0,0,0
1412514,998,1,0,0,0,0
1412522,1024,1,0,0,0,0
1412530,1024,1,0,0,0,0
1412538,877,0,0,0,0,0
1412546,1024,1,0,0,0,0
1412554,994,1,0,0,0,0
1412562,1024,1,0,0,0,0
1412570,1024,1,0,0,0,0
1412578,879,0,0,0,0,0
1412586,1024,1,0,0,0,0
1412594,991,1,0,0,0,0
1412602,1024,1,0,0,0,0
1412610,1024,1,0,0,0,0
1412618,874,0,0,0,0,0
1412626,1024,1,0,0,0,0
1412634,985,1,0,0,0,0
1412642,1024,1,0,0,0,0
1412650,1024,1,0,0,0,0
1412658,879,0,0,0,0,0
1412666,1024,1,0,0,0,0
1412674,972,1,0,0,0,0
1412682,1024,1,0,0,0,0
1412690,1024,1,0,0,0,0
1412698,916,0,0,0,0,0
1412706,1024,1,0,0,0,0
1412714,1014,1,0,0,0,0
1412722,1024,1,0,0,0,0
1412730,1024,1,0,0,0,0
1412738,879,0,0,0,0,0
1412746,1024,1,0,0,0,0
1412754,963,1,0,0,0,0
1412762,1024,1,0,0,0,0
1412770,1024,1,0,0,0,0
1412778,878,0,0,0,0,0
1412786,1024,1,0,0,0,0
1412794,984,1,0,0,0,0
1412802,1024,1,0,0,0,0
1412810,1024,1,0,0,0,0
1412818,912,0,0,0,0,0
1412826,1024,1,0,0,0,0
1412834,986,1,0,0,0,0
1412842,1024,1,0,0,0,0
1412850,1024,1,0,0,0,0
1412858,914,0,0,0,0,0
1412866,1024,1,0,0,0,0
1412874,967,1,0,0,0,0
1412882,1024,1,0,0,0,0
1412890,1024,1,0,0,0,0
1412898,915,0,0,0,0,0
1412906,1024,1,0,0,0,0
1412914,966,1,0,0,0,0
1412922,1024,1,0,0,0,0
1412930,1024,1,0,0,0,0
1412938,904,0,0,0,0,0
1412946,1024,1,0,0,0,0
1412954,961,1,0,0,0,0
1412962,1024,1,0,0,0,0
1412970,1024,1,0,0,0,0
1412978,902,0,0,0,0,0
1412986,1024,1,0,0,0,0
1412994,951,1,0,0,0,0
1413002,1024,1,0,0,0,0
1413010,1024,1,0,0,0,0
1413018,920,0,0,0,0,0
1413026,1024,1,0,0,0,0
1413034,958,1,0,0,0,0
1413042,1024,1,0,0,0,0
1413050,1024,1,0,0,0,0
1413058,932,0,0,0,0,0
1413066,1024,1,0,0,0,0
1413074,954,1,0,0,0,0
1413082,1024,1,0,0,0,0
1413090,1024,1,0,0,0,0
1413098,936,0,0,0,0,0
1413106,1024,1,0,0,0,0
1413114,946,1,0,0,0,0
1413122,1024,1,0,0,0,0
1413130,1024,1,0,0,0,0
1413138,945,0,0,0,0,0
1413146,1024,1,0,0,0,0
1413154,954,1,0,0,0,0
1413162,1024,1,0,0,0,0
1413170,1024,1,0,0,0,0
1413178,944,0,0,0,0,0
1413186,1024,1,0,0,0,0
1413194,950,1,0,0,0,0
1413202,1024,1,0,0,0,0
1413210,1024,1,0,0,0,0
1413218,952,0,0,0,0,0
1413226,1024,1,0,0,0,0
1413234,944,1,0,0,0,0
1413242,1024,1,0,0,0,0
1413250,1024,1,0,0,0,0
1413258,960,0,0,0,0,0
1413266,1024,1,0,0,0,0
1413274,934,1,0,0,0,0
1413282,1024,1,0,0,0,0
1413290,1024,1,0,0,0,0
1413298,944,0,0,0,0,0
1413306,1024,1,0,0,0,0
1413314,939,1,0,0,0,0
1413322,1024,1,0,0,0,0
1413330,1024,1,0,0,0,0
1413338,964,0,0,0,0,0
1413346,1024,1,0,0,0,0
1413354,933,1,0,0,0,0
1413362,1024,1,0,0,0,0
1413370,1024,1,0,0,0,0
1413378,972,0,0,0,0,0
1413386,1024,1,0,0,0,0
1413394,927,1,0,0,0,0
1413402,1024,1,0,0,0,0
1413410,1024,1,0,0,0,0
1413418,973,0,0,0,0,0
1413426,1024,1,0,0,0,0
1413434,918,1,0,0,0,0
1413442,1024,1,0,0,0,0
1413450,1024,1,0,0,0,0
1413458,972,0,0,0,0,0
1413466,1024,1,0,0,0,0
1413474,914,1,0,0,0,0
1413482,1024,1,0,0,0,0
1413490,1024,1,0,0,0,0
1413498,975,0,0,0,0,0
1413506,1024,1,0,0,0,0
1413514,912,1,0,0,0,0
1413522,1024,1,0,0,0,0
1413530,1024,1,0,0,0,0
1413538,1000,0,0,0,0,0
1413546,1024,1,0,0,0,0
1413554,920,1,0,0,0,0
1413562,1024,1,0,0,0,0
1413570,1024,1,0,0,0,0
1413578,1024,0,0,0,0,0
1413586,1024,1,0,0,0,0
1413594,940,0,0,0,0,0
1413602,1024,1,0,0,0,0
1413610,1024,1,0,0,0,0
1413618,987,0,0,0,0,0
1413626,1024,1,0,0,0,0
1413634,919,0,0,0,0,0
1413642,1024,1,0,0,0,0
1413650,1024,1,0,0,0,0
1413658,1001,0,0,0,0,0
1413666,1024,1,0,0,0,0
1413674,914,0,0,0,0,0
1413682,1024,1,0,0,0,0
1413690,1024,1,0,0,0,0
1413698,1024,0,0,0,0,0
1413706,1024,1,0,0,0,0
1413714,913,0,0,0,0,0
1413722,1024,1,0,0,0,0
1413730,1024,1,0,0,0,0
1413738,1024,0,0,0,0,0
1413746,1024,1,0,0,0,0
1413754,910,0,0,0,0,0
1413762,1024,1,0,0,0,0
1413770,1024,1,0,0,0,0
1413778,1024,0,0,0,0,0
1413786,1024,1,0,0,0,0
1413794,903,0,0,0,0,0
1413802,1024,1,0,0,0,0
1413810,1024,1,0,0,0,0
1413818,1024,0,0,0,0,0
1413826,1024,1,0,0,0,0
1413834,890,0,0,0,0,0
1413842,1024,1,0,0,0,0
1413850,1024,1,0,0,0,0
1413858,1010,0,0,0,0,0
1413866,1024,1,0,0,0,0
1413874,867,0,0,0,0,0
1413882,1024,1,0,0,0,0
1413890,1024,1,0,0,0,0
1413898,1024,0,0,0,0,0
1413906,1024,1,0,0,0,0
1413914,881,0,0,0,0,0
1413922,1024,1,0,0,0,0
1413930,1024,1,0,0,0,0
1413938,1024,0,0,0,0,0
1413946,1024,1,0,0,0,0
1413954,876,0,0,0,0,0
1413962,1024,1,0,0,0,0
1413970,1024,1,0,0,0,0
1413978,1024,0,0,0,0,0
1413986,1024,1,0,0,0,0
1413994,881,0,0,0,0,0
1414002,1024,1,0,0,0,0
1414010,1024,1,0,0,0,0
1414018,1024,0,0,0,0,0
1414026,1024,1,0,0,0,0
1414034,885,0,0,0,0,0
1414042,1024,1,0,0,0,0
1414050,1024,1,0,0,0,0
1414058,1024,0,0,0,0,0
1414066,1024,1,0,0,0,0
1414074,880,0,0,0,0,0
1414082,1024,1,0,0,0,0
1414090,1024,1,0,0,0,0
1414098,1024,0,0,0,0,0
1414106,1024,1,0,0,0,0
1414114,874,0,0,0,0,0
1414122,1024,1,0,0,0,0
1414130,1024,1,0,0,0,0
1414138,1024,0,0,0,0,0
1414146,1024,1,0,0,0,0
1414154,879,0,0,0,0,0
1414162,1024,1,0,0,0,0
1414170,1024,1,0,0,0,0
1414178,1024,0,0,0,0,0
1414186,1024,1,0,0,0,0
1414194,859,0,0,0,0,0
1414202,1024,1,0,0,0,0
1414210,1024,1,0,0,0,0
1414218,1024,0,0,0,0,0
1414226,1024,1,0,0,0,0
1414234,861,0,0,0,0,0
1414242,1024,1,0,0,0,0
1414250,1024,1,0,0,0,0
1414258,1024,0,0,0,0,0
1414266,1024,1,0,0,0,0
1414274,858,0,0,0,0,0
1414282,1024,1,0,0,0,0
1414290,1024,1,0,0,0,0
1414298,1024,0,0,0,0,0
1414306,1024,1,0,0,0,0
1414314,860,0,0,0,0,0
1414322,1024,1,0,0,0,0
1414330,1024,1,0,0,0,0
1414338,1024,0,0,0,0,0
1414346,1024,1,0,0,0,0
1414354,861,0,0,0,0,0
1414362,1024,1,0,0,0,0
1414370,1024,1,0,0,0,0
1414378,1024,0,0,0,0,0
1414386,1024,1,0,0,0,0
1414394,864,0,0,0,0,0
1414402,1024,1,0,0,0,0
1414410,1024,1,0,0,0,0
1414418,1024,0,0,0,0,0
1414426,1024,1,0,0,0,0
1414434,888,0,0,0,0,0
1414442,1024,1,0,0,0,0
1414450,1024,1,0,0,0,0
1414458,1024,0,0,0,0,0
1414466,1024,1,0,0,0,0
1414474,822,0,0,0,0,0
1414482,1024,1,0,0,0,0
1414490,1024,1,0,0,0,0
1414498,1024,0,0,0,0,0
1414506,1024,1,0,0,0,0
1414514,871,0,0,0,0,0
1414522,1024,1,0,0,0,0
1414530,1024,1,0,0,0,0
1414538,1024,0,0,0,0,0
1414546,1024,1,0,0,0,0
1414554,885,0,0,0,0,0
1414562,1024,1,0,0,0,0
1414570,1024,1,0,0,0,0
1414578,1024,0,0,0,0,0
1414586,1024,1,0,0,0,0
1414594,869,0,0,0,0,0
1414602,1024,1,0,0,0,0
1414610,1024,1,0,0,0,0
1414618,1024,0,0,0,0,0
1414626,1024,1,0,0,0,0
1414634,871,0,0,0,0,0
1414642,1024,1,0,0,0,0
1414650,1024,1,0,0,0,0
1414658,1024,0,0,0,0,0
1414666,1024,1,0,0,0,0
1414674,852,0,0,0,0,0
1414682,1024,1,0,0,0,0
1414690,1024,1,0,0,0,0
1414698,1024,0,0,0,0,0
1414706,1024,1,0,0,0,0
1414714,833,0,0,0,0,0
1414722,1024,1,0,0,0,0
1414730,1024,1,0,0,0,0
1414738,1024,0,0,0,0,0
1414746,1024,1,0,0,0,0
1414754,859,0,0,0,0,0
1414762,1024,1,0,0,0,0
1414770,1024,1,0,0,0,0
1414778,1024,0,0,0,0,0
1414786,1024,1,0,0,0,0
1414794,866,0,0,0,0,0
1414802,1024,1,0,0,0,0
1414810,1024,1,0,0,0,0
1414818,1024,0,0,0,0,0
1414826,1024,1,0,0,0,0
1414834,867,0,0,0,0,0
1414842,1024,1,0,0,0,0
1414850,1024,1,0,0,0,0
1414858,1024,0,0,0,0,0
1414866,1024,1,0,0,0,0
1414874,874,0,0,0,0,0
1414882,1024,1,0,0,0,0
1414890,1024,1,0,0,0,0
1414898,1024,0,0,0,0,0
1414906,1024,1,0,0,0,0
1414914,862,0,0,0,0,0
1414922,1024,1,0,0,0,0
1414930,1024,1,0,0,0,0
1414938,1024,0,0,0,0,0
1414946,1024,1,0,0,0,0
1414954,865,0,0,0,0,0
1414962,1024,1,0,0,0,0
1414970,1024,1,0,0,0,0
1414978,1024,0,0,0,0,0
1414986,1024,1,0,0,0,0
1414994,877,0,0,0,0,0
1415002,1024,1,0,0,0,0
1415010,1024,1,0,0,0,0
1415019,1024,0,0,0,0,0
1415027,1024,1,0,0,0,0
1415035,869,0,0,0,0,0
1415043,1024,1,0,0,0,0
1415051,1024,1,0,0,0,0
1415059,1024,0,0,0,0,0
1415067,1024,1,0,0,0,0
1415075,860,0,0,0,0,0
1415083,1024,1,0,0,0,0
1415091,1024,1,0,0,0,0
1415099,1024,0,0,0,0,0
1415107,1024,1,0,0,0,0
1415115,870,0,0,0,0,0
1415123,1024,1,0,0,0,0
1415131,1024,1,0,0,0,0
1415139,1024,0,0,0,0,0
1415147,1024,1,0,0,0,0
1415155,860,0,0,0,0,0
1415163,1024,1,0,0,0,0
1415171,1024,1,0,0,0,0
1415179,1024,0,0,0,0,0
1415187,1024,1,0,0,0,0
1415195,869,0,0,0,0,0
1415203,1024,1,0,0,0,0
1415211,1024,1,0,0,0,0
1415219,1024,1,0,0,0,0
1415227,1024,1,0,0,0,0
1415235,888,0,0,0,0,0
1415243,1024,1,0,0,0,0
1415251,1024,1,0,0,0,0
1415259,1024,1,0,0,0,0
1415267,1024,1,0,0,0,0
1415275,894,0,0,0,0,0
1415283,1024,1,0,0,0,0
1415291,993,1,0,0,0,0
1415299,1024,1,0,0,0,0
1415307,1024,1,0,0,0,0
1415315,856,0,0,0,0,0
1415323,1024,1,0,0,0,0
1415331,1020,1,0,0,0,0
1415339,1024,1,0,0,0,0
1415347,1024,1,0,0,0,0
1415355,882,0,0,0,0,0
1415363,1024,1,0,0,0,0
1415371,1024,1,0,0,0,0
1415379,1024,1,0,0,0,0
1415387,1024,1,0,0,0,0
1415395,886,0,0,0,0,0
1415403,1024,1,0,0,0,0
1415411,1024,1,0,0,0,0
1415419,1024,1,0,0,0,0
1415427,1024,1,0,0,0,0
1415435,873,0,0,0,0,0
1415443,1024,1,0,0,0,0
1415451,1018,1,0,0,0,0
1415459,1024,1,0,0,0,0
1415467,1024,1,0,0,0,0
1415475,894,0,0,0,0,0
1415483,1024,1,0,0,0,0
1415491,1017,1,0,0,0,0
1415499,1024,1,0,0,0,0
1415507,1024,1,0,0,0,0
1415515,886,0,0,0,0,0
1415523,1024,1,0,0,0,0
1415531,1013,1,0,0,0,0
1415539,1024,1,0,0,0,0
1415547,1024,1,0,0,0,0
1415555,881,0,0,0,0,0
1415563,1024,1,0,0,0,0
1415571,1014,1,0,0,0,0
1415579,1024,1,0,0,0,0
1415587,1024,1,0,0,0,0
1415595,894,0,0,0,0,0
1415603,1024,1,0,0,0,0
1415611,1009,1,0,0,0,0
1415619,1024,1,0,0,0,0
1415627,1024,1,0,0,0,0
1415635,901,0,0,0,0,0
1415643,1024,1,0,0,0,0
1415651,1009,1,0,0,0,0
1415659,1024,1,0,0,0,0
1415667,1024,1,0,0,0,0
1415675,906,0,0,0,0,0
1415683,1024,1,0,0,0,0
1415691,1009,1,0,0,0,0
1415699,1024,1,0,0,0,0
1415707,1024,1,0,0,0,0
1415715,916,0,0,0,0,0
1415723,1024,1,0,0,0,0
1415731,1009,1,0,0,0,0
1415739,1024,1,0,0,0,0
1415747,1024,1,0,0,0,0
1415755,921,0,0,0,0,0
1415763,1024,1,0,0,0,0
1415771,1009,1,0,0,0,0
1415779,1024,1,0,0,0,0
1415787,1024,1,0,0,0,0
1415795,922,0,0,0,0,0
1415803,1024,1,0,0,0,0
1415811,1006,1,0,0,0,0
1415819,1024,1,0,0,0,0
1415827,1024,1,0,0,0,0
1415835,925,0,0,0,0,0
1415843,1024,1,0,0,0,0
1415851,1003,1,0,0,0,0
1415859,1024,1,0,0,0,0
1415867,1024,1,0,0,0,0
1415875,924,0,0,0,0,0
1415883,1024,1,0,0,0,0
1415891,1000,1,0,0,0,0
1415899,1024,1,0,0,0,0
1415907,1024,1,0,0,0,0
1415915,930,0,0,0,0,0
1415923,1024,1,0,0,0,0
1415931,986,1,0,0,0,0
1415939,1024,1,0,0,0,0
1415947,1024,1,0,0,0,0
1415955,925,0,0,0,0,0
1415963,1024,1,0,0,0,0
1415971,987,1,0,0,0,0
1415979,1024,1,0,0,0,0
1415987,1024,1,0,0,0,0
1415995,926,0,0,0,0,0
1416003,1024,1,0,0,0,0
1416011,994,1,0,0,0,0
1416019,1024,1,0,0,0,0
1416027,1024,1,0,0,0,0
1416035,938,0,0,0,0,0
1416043,1024,1,0,0,0,0
1416051,989,1,0,0,0,0
1416059,1024,1,0,0,0,0
1416067,1024,1,0,0,0,0
1416075,930,0,0,0,0,0
1416083,1024,1,0,0,0,0
1416091,922,1,0,0,0,0
1416099,1024,1,0,0,0,0
1416107,1024,1,0,0,0,0
1416115,917,0,0,0,0,0
1416123,1024,1,0,0,0,0
1416131,976,1,0,0,0,0
1416139,1024,1,0,0,0,0
1416147,1024,1,0,0,0,0
1416155,974,0,0,0,0,0
1416163,1024,1,0,0,0,0
1416171,986,1,0,0,0,0
1416179,1024,1,0,0,0,0
1416187,1024,1,0,0,0,0
1416195,974,0,0,0,0,0
1416203,1024,1,0,0,0,0
1416211,991,1,0,0,0,0
1416219,1024,1,0,0,0,0
1416227,1024,1,0,0,0,0
1416235,973,0,0,0,0,0
1416243,1024,1,0,0,0,0
1416251,972,1,0,0,0,0
1416259,1024,1,0,0,0,0
1416267,1024,1,0,0,0,0
1416275,972,0,0,0,0,0
1416283,1024,1,0,0,0,0
1416291,966,1,0,0,0,0
1416299,1024,1,0,0,0,0
1416307,1024,1,0,0,0,0
1416315,955,0,0,0,0,0
1416323,1024,1,0,0,0,0
1416331,952,1,0,0,0,0
1416339,1024,1,0,0,0,0
1416347,1024,1,0,0,0,0
1416355,957,0,0,0,0,0
1416363,1024,1,0,0,0,0
1416371,953,1,0,0,0,0
1416379,1024,1,0,0,0,0
1416387,1024,1,0,0,0,0
1416395,982,0,0,0,0,0
1416403,1024,1,0,0,0,0
1416411,954,1,0,0,0,0
1416419,1024,1,0,0,0,0
1416427,1024,1,0,0,0,0
1416435,996,0,0,0,0,0
1416443,1024,1,0,0,0,0
1416451,954,1,0,0,0,0
1416459,1024,1,0,0,0,0
1416467,1024,1,0,0,0,0
1416475,999,0,0,0,0,0
1416483,1024,1,0,0,0,0
1416491,952,1,0,0,0,0
1416499,1024,1,0,0,0,0
1416507,1024,1,0,0,0,0
1416515,1005,0,0,0,0,0
1416523,1024,1,0,0,0,0
1416531,951,1,0,0,0,0
1416539,1024,1,0,0,0,0
1416547,1024,1,0,0,0,0
1416555,1015,0,0,0,0,0
1416563,1024,1,0,0,0,0
1416571,941,1,0,0,0,0
1416579,1024,1,0,0,0,0
1416587,1024,1,0,0,0,0
1416595,1010,0,0,0,0,0
1416603,1024,1,0,0,0,0
1416611,937,1,0,0,0,0
1416619,1024,1,0,0,0,0
1416627,1024,1,0,0,0,0
1416635,1018,0,0,0,0,0
1416643,1024,1,0,0,0,0
1416651,929,1,0,0,0,0
1416659,1024,1,0,0,0,0
1416667,1024,1,0,0,0,0
1416675,1024,0,0,0,0,0
1416683,1024,1,0,0,0,0
1416691,928,1,0,0,0,0
1416699,1024,1,0,0,0,0
1416707,1024,1,0,0,0,0
1416715,1024,0,0,0,0,0
1416723,1024,1,0,0,0,0
1416731,925,0,0,0,0,0
1416739,1024,1,0,0,0,0
1416747,1024,1,0,0,0,0
1416755,1024,0,0,0,0,0
1416763,1024,1,0,0,0,0
1416771,926,0,0,0,0,0
1416779,1024,1,0,0,0,0
1416787,1024,1,0,0,0,0
1416795,1024,0,0,0,0,0
1416803,1024,1,0,0,0,0
1416811,914,0,0,0,0,0
1416819,1024,1,0,0,0,0
1416827,1024,1,0,0,0,0
1416835,1024,0,0,0,0,0
1416843,1024,1,0,0,0,0
1416851,919,0,0,0,0,0
1416859,1024,1,0,0,0,0
1416867,1024,1,0,0,0,0
1416875,1024,0,0,0,0,0
1416883,1024,1,0,0,0,0
1416891,908,0,0,0,0,0
1416899,1024,1,0,0,0,0
1416907,1024,1,0,0,0,0
1416915,1024,0,0,0,0,0
1416923,1024,1,0,0,0,0
1416931,950,0,0,0,0,0
1416939,1024,1,0,0,0,0
1416947,1024,1,0,0,0,0
1416955,954,0,0,0,0,0
1416963,1024,1,0,0,0,0
1416971,870,0,0,0,0,0
1416979,1024,1,0,0,0,0
1416987,1024,1,0,0,0,0
1416995,1024,0,0,0,0,0
1417003,1024,1,0,0,0,0
1417011,901,0,0,0,0,0
1417019,1024,1,0,0,0,0
1417027,1024,1,0,0,0,0
1417035,1024,0,0,0,0,0
1417043,1024,1,0,0,0,0
1417051,902,0,0,0,0,0
1417059,1024,1,0,0,0,0
1417067,1024,1,0,0,0,0
1417075,1024,0,0,0,0,0
1417083,1024,1,0,0,0,0
1417091,900,0,0,0,0,0
1417099,1024,1,0,0,0,0
1417107,1024,1,0,0,0,0
1417115,1024,0,0,0,0,0
1417123,1024,1,0,0,0,0
1417131,898,0,0,0,0,0
1417139,1024,1,0,0,0,0
1417147,1024,1,0,0,0,0
1417155,1024,0,0,0,0,0
1417163,1024,1,0,0,0,0
1417171,878,0,0,0,0,0
1417179,1024,1,0,0,0,0
1417187,1024,1,0,0,0,0
1417195,1024,0,0,0,0,0
1417203,1024,1,0,0,0,0
1417211,879,0,0,0,0,0
1417219,1024,1,0,0,0,0
1417227,1024,1,0,0,0,0
1417235,1024,0,0,0,0,0
1417243,1024,1,0,0,0,0
1417251,890,0,0,0,0,0
1417259,1024,1,0,0,0,0
1417267,1024,1,0,0,0,0
1417275,1024,0,0,0,0,0
1417283,1024,1,0,0,0,0
1417291,888,0,0,0,0,0
1417299,1024,1,0,0,0,0
1417307,1024,1,0,0,0,0
1417315,1024,0,0,0,0,0
1417323,1024,1,0,0,0,0
1417331,886,0,0,0,0,0
1417339,1024,1,0,0,0,0
1417347,1024,1,0,0,0,0
1417355,1024,0,0,0,0,0
1417363,1024,1,0,0,0,0
1417371,878,0,0,0,0,0
1417379,1024,1,0,0,0,0
1417387,1024,1,0,0,0,0
1417395,1024,0,0,0,0,0
1417403,1024,1,0,0,0,0
1417411,879,0,0,0,0,0
1417419,1024,1,0,0,0,0
1417427,1024,1,0,0,0,0
1417435,1024,0,0,0,0,0
1417443,1024,1,0,0,0,0
1417451,883,0,0,0,0,0
1417459,1024,1,0,0,0,0
1417467,1024,1,0,0,0,0
1417475,1024,0,0,0,0,0
1417483,1024,1,0,0,0,0
1417491,876,0,0,0,0,0
1417499,1024,1,0,0,0,0
1417507,1024,1,0,0,0,0
1417515,1024,0,0,0,0,0
1417523,1024,1,0,0,0,0
1417531,872,0,0,0,0,0
1417539,1024,1,0,0,0,0
1417547,1024,1,0,0,0,0
1417555,1024,0,0,0,0,0
1417563,1024,1,0,0,0,0
1417571,871,0,0,0,0,0
1417579,1024,1,0,0,0,0
1417587,1024,1,0,0,0,0
1417595,1024,0,0,0,0,0
1417603,1024,1,0,0,0,0
1417611,858,0,0,0,0,0
1417619,1024,1,0,0,0,0
1417627,1024,1,0,0,0,0
1417635,1024,0,0,0,0,0
1417643,1024,1,0,0,0,0
1417651,858,0,0,0,0,0
1417659,1024,1,0,0,0,0
1417667,1024,1,0,0,0,0
1417675,1024,0,0,0,0,0
1417683,1024,1,0,0,0,0
1417691,865,0,0,0,0,0
1417699,1024,1,0,0,0,0
1417707,1024,1,0,0,0,0
1417715,1024,0,0,0,0,0
1417723,1024,1,0,0,0,0
1417731,860,0,0,0,0,0
1417740,1024,1,0,0,0,0
1417748,1024,1,0,0,0,0
1417756,1024,0,0,0,0,0
1417764,1024,1,0,0,0,0
1417772,884,0,0,0,0,0
1417780,1024,1,0,0,0,0
1417788,1024,1,0,0,0,0
1417796,1024,0,0,0,0,0
1417804,1024,1,0,0,0,0
1417812,822,0,0,0,0,0
1417820,1024,1,0,0,0,0
1417828,1024,1,0,0,0,0
1417836,1024,0,0,0,0,0
1417844,1024,1,0,0,0,0
1417852,864,0,0,0,0,0
1417860,1024,1,0,0,0,0
1417868,1024,1,0,0,0,0
1417876,1024,0,0,0,0,0
1417884,1024,1,0,0,0,0
1417892,871,0,0,0,0,0
1417900,1024,1,0,0,0,0
1417908,1024,1,0,0,0,0
1417916,1024,0,0,0,0,0
1417924,1024,1,0,0,0,0
1417932,869,0,0,0,0,0
1417940,1024,1,0,0,0,0
1417948,1024,1,0,0,0,0
1417956,1024,0,0,0,0,0
1417964,1024,1,0,0,0,0
1417972,862,0,0,0,0,0
1417980,1024,1,0,0,0,0
1417988,1024,1,0,0,0,0
1417996,1024,0,0,0,0,0
1418004,1024,1,0,0,0,0
1418012,846,0,0,0,0,0
1418020,1024,1,0,0,0,0
1418028,1024,1,0,0,0,0
1418036,1024,0,0,0,0,0
1418044,1024,1,0,0,0,0
1418052,853,0,0,0,0,0
1418060,1024,1,0,0,0,0
1418068,1024,1,0,0,0,0
1418076,1024,0,0,0,0,0
1418084,1024,1,0,0,0,0
1418092,874,0,0,0,0,0
1418100,1024,1,0,0,0,0
1418108,1024,1,0,0,0,0
1418116,1024,0,0,0,0,0
1418124,1024,1,0,0,0,0
1418132,870,0,0,0,0,0
1418140,1024,1,0,0,0,0
1418148,1024,1,0,0,0,0
1418156,1024,0,0,0,0,0
1418164,1024,1,0,0,0,0
1418172,884,0,0,0,0,0
1418180,1024,1,0,0,0,0
1418188,1024,1,0,0,0,0
1418196,1024,0,0,0,0,0
1418204,1024,1,0,0,0,0
1418212,886,0,0,0,0,0
1418220,1024,1,0,0,0,0
1418228,1024,1,0,0,0,0
1418236,1024,0,0,0,0,0
1418244,1024,1,0,0,0,0
1418252,881,0,0,0,0,0
1418260,1024,1,0,0,0,0
1418268,1024,1,0,0,0,0
1418276,1024,0,0,0,0,0
1418284,1024,1,0,0,0,0
1418292,883,0,0,0,0,0
1418300,1024,1,0,0,0,0
1418308,1024,1,0,0,0,0
1418316,1024,0,0,0,0,0
1418324,1024,1,0,0,0,0
1418332,882,0,0,0,0,0
1418340,1024,1,0,0,0,0
1418348,1024,1,0,0,0,0
1418356,1024,1,0,0,0,0
1418364,1024,1,0,0,0,0
1418372,889,0,0,0,0,0
1418380,1024,1,0,0,0,0
1418388,1024,1,0,0,0,0
1418396,1024,1,0,0,0,0
1418404,1024,1,0,0,0,0
1418412,880,0,0,0,0,0
1418420,1024,1,0,0,0,0
1418428,1024,1,0,0,0,0
1418436,1024,1,0,0,0,0
1418444,1024,1,0,0,0,0
1418452,880,0,0,0,0,0
1418460,1024,1,0,0,0,0
1418468,1024,1,0,0,0,0
1418476,1024,1,0,0,0,0
1418484,1024,1,0,0,0,0
1418492,882,0,0,0,0,0
1418500,1024,1,0,0,0,0
1418508,1022,1,0,0,0,0
1418516,1024,1,0,0,0,0
1418524,1024,1,0,0,0,0
1418532,884,0,0,0,0,0
1418540,1024,1,0,0,0,0
1418548,1017,1,0,0,0,0
1418556,1024,1,0,0,0,0
1418564,1024,1,0,0,0,0
1418572,886,0,0,0,0,0
1418580,1024,1,0,0,0,0
1418588,1024,1,0,0,0,0
1418596,1024,1,0,0,0,0
1418604,1024,1,0,0,0,0
1418612,894,0,0,0,0,0
1418620,1024,1,0,0,0,0
1418628,1017,1,0,0,0,0
1418636,1024,1,0,0,0,0
1418644,1024,1,0,0,0,0
1418652,909,0,0,0,0,0
1418660,1024,1,0,0,0,0
1418668,1024,1,0,0,0,0
1418676,1024,1,0,0,0,0
1418684,1024,1,0,0,0,0
1418692,860,0,0,0,0,0
1418700,1024,1,0,0,0,0
1418708,980,1,0,0,0,0
1418716,1024,1,0,0,0,0
1418724,1024,1,0,0,0,0
1418732,893,0,0,0,0,0
1418740,1024,1,0,0,0,0
1418748,1013,1,0,0,0,0
1418756,1024,1,0,0,0,0
1418764,1024,1,0,0,0,0
1418772,907,0,0,0,0,0
1418780,1024,1,0,0,0,0
1418788,1011,1,0,0,0,0
1418796,1024,1,0,0,0,0
1418804,1024,1,0,0,0,0
1418812,915,0,0,0,0,0
1418820,1024,1,0,0,0,0
1418828,1009,1,0,0,0,0
1418836,1024,1,0,0,0,0
1418844,1024,1,0,0,0,0
1418852,913,0,0,0,0,0
1418860,1024,1,0,0,0,0
1418868,1006,1,0,0,0,0
1418876,1024,1,0,0,0,0
1418884,1024,1,0,0,0,0
1418892,901,0,0,0,0,0
1418900,1024,1,0,0,0,0
1418908,994,1,0,0,0,0
1418916,1024,1,0,0,0,0
1418924,1024,1,0,0,0,0
1418932,894,0,0,0,0,0
1418940,1024,1,0,0,0,0
1418948,990,1,0,0,0,0
1418956,1024,1,0,0,0,0
1418964,1024,1,0,0,0,0
1418972,907,0,0,0,0,0
1418980,1024,1,0,0,0,0
1418988,990,1,0,0,0,0
1418996,1024,1,0,0,0,0
1419004,1024,1,0,0,0,0
1419012,914,0,0,0,0,0
1419020,1024,1,0,0,0,0
1419028,988,1,0,0,0,0
1419036,1024,1,0,0,0,0
1419044,1024,1,0,0,0,0
1419052,917,0,0,0,0,0
1419060,1024,1,0,0,0,0
1419068,994,1,0,0,0,0
1419076,1024,1,0,0,0,0
1419084,1024,1,0,0,0,0
1419092,941,0,0,0,0,0
1419100,1024,1,0,0,0,0
1419108,998,1,0,0,0,0
1419116,1024,1,0,0,0,0
1419124,1024,1,0,0,0,0
1419132,942,0,0,0,0,0
1419140,1024,1,0,0,0,0
