timestamp_ms,value,lead_ok
7,6,64501
18,0,1
9151,619,11
2,9,623141
2455,50,1
4,9,1
5,8,1
3,131604,511
275,3,1
283,543,1
8,5,1
6039417,3961417,1
3965,60996093,6761
603985,680,1
603989,555,1
603993,502,1
603997,542,1
604001,616,1
604005,658,1
604009,658,1
604013,630,1
604017,580,1
604021,538,1
604025,517,1
604029,510,1
604033,508,1
604037,509,1
604041,512,1
604045,509,1
604049,508,1
604053,509,1
604057,512,1
604061,512,1
604065,511,1
604069,512,1
604073,513,1
604077,513,1
604081,514,1
604085,513,1
604089,514,1
604093,516,1
604097,517,1
604101,516,1
604105,514,1
604109,516,1
604113,518,1
604117,521,1
604121,522,1
604125,521,1
604129,522,1
604133,523,1
604137,524,1
604141,525,1
604145,528,1
604149,531,1
604153,534,1
604157,536,1
604161,538,1
604165,540,1
604169,542,1
604173,545,1
604177,549,1
604181,554,1
604185,557,1
604189,562,1
604193,567,1
604197,570,1
604201,573,1
604205,577,1
604209,581,1
604213,586,1
604217,589,1
604221,590,1
604225,591,1
604229,592,1
604233,594,1
604237,592,1
604241,590,1
604245,586,1
604249,581,1
604253,576,1
604257,570,1
604261,564,1
604265,557,1
604269,550,1
604273,544,1
604277,540,1
604281,533,1
604285,526,1
604289,522,1
604293,519,1
604297,518,1
604301,516,1
604305,513,1
604309,509,1
604313,509,1
604317,512,1
604321,512,1
604325,508,1
604329,508,1
604333,507,1
604337,508,1
604341,507,1
604345,507,1
604349,506,1
604353,506,1
604357,505,1
604361,507,1
604365,507,1
604369,508,1
604373,508,1
604377,508,1
604381,508,1
604385,507,1
604389,508,1
604393,509,1
604397,512,1
604401,513,1
604405,513,1
604409,514,1
604413,516,1
604417,516,1
604421,517,1
604425,517,1
604429,517,1
604433,518,1
604437,521,1
604441,522,1
604445,521,1
604449,521,1
604453,521,1
604457,522,1
604461,523,1
604465,524,1
604469,525,1
604473,526,1
604477,528,1
604481,529,1
604485,529,1
604489,529,1
604493,531,1
604497,531,1
604501,532,1
604505,533,1
604509,533,1
604513,535,1
604517,536,1
604521,536,1
604525,535,1
604529,535,1
604533,535,1
604537,536,1
604541,538,1
604545,538,1
604549,536,1
604553,538,1
604557,540,1
604561,540,1
604565,540,1
604569,538,1
604573,538,1
604577,540,1
604581,541,1
604585,541,1
604589,542,1
604593,543,1
604597,543,1
604601,542,1
604605,541,1
604609,542,1
604613,541,1
604617,541,1
604621,544,1
604625,548,1
604629,553,1
604633,556,1
604637,562,1
604641,567,1
604645,562,1
604649,560,1
604653,556,1
604657,554,1
604661,552,1
604665,547,1
604669,545,1
604673,542,1
604677,541,1
604681,538,1
604685,538,1
604689,541,1
604693,541,1
604697,541,1
604701,541,1
604705,540,1
604709,540,1
604713,541,1
604717,542,1
604721,537,1
604725,529,1
604729,517,1
604733,505,1
604737,484,1
604741,451,1
604745,428,1
604749,433,1
604753,478,1
604757,573,1
604761,708,1
604765,810,1
604769,788,1
604773,658,1
604777,541,1
604781,497,1
604785,540,1
604789,608,1
604793,648,1
604797,648,1
604801,624,1
604805,579,1
604809,543,1
604813,525,1
604817,518,1
604821,516,1
604825,514,1
604829,516,1
604833,517,1
604837,518,1
604841,518,1
604845,518,1
604849,518,1
604853,518,1
604857,519,1
604861,519,1
604865,519,1
604869,519,1
604873,521,1
604877,523,1
604881,525,1
604885,524,1
604889,523,1
604893,524,1
604897,525,1
604901,528,1
604905,528,1
604909,528,1
604913,530,1
604917,532,1
604921,534,1
604925,534,1
604929,535,1
604933,536,1
604937,540,1
604941,542,1
604945,543,1
604949,546,1
604953,549,1
604957,554,1
604961,557,1
604965,561,1
604969,567,1
604973,569,1
604977,574,1
604981,579,1
604985,583,1
604989,586,1
604993,591,1
604997,595,1
605001,597,1
605005,598,1
605009,600,1
605013,602,1
605017,603,1
605021,602,1
605025,600,1
605029,595,1
605033,590,1
605037,585,1
605041,578,1
605045,569,1
605049,561,1
605053,553,1
605057,545,1
605061,540,1
605065,532,1
605069,525,1
605073,522,1
605077,521,1
605081,519,1
605085,517,1
605089,514,1
605093,512,1
605097,510,1
605101,508,1
605105,508,1
605109,508,1
605113,509,1
605117,509,1
605121,512,1
605125,511,1
605129,509,1
605133,508,1
605137,508,1
605141,508,1
605145,507,1
605149,507,1
605153,507,1
605157,508,1
605162,508,1
605166,508,1
605170,508,1
605174,509,1
605178,511,1
605182,512,1
605186,512,1
605190,512,1
605194,513,1
605198,514,1
605202,514,1
605206,516,1
605210,516,1
605214,517,1
605218,518,1
605222,519,1
605226,519,1
605230,520,1
605234,521,1
605238,522,1
605242,524,1
605246,523,1
605250,524,1
605254,525,1
605258,526,1
605262,529,1
605266,529,1
605270,529,1
605274,530,1
605278,531,1
605282,531,1
605286,530,1
605290,531,1
605294,532,1
605298,534,1
605302,534,1
605306,534,1
605310,533,1
605314,534,1
605318,535,1
605322,536,1
605326,536,1
605330,536,1
605334,536,1
605338,535,1
605342,535,1
605346,533,1
605350,533,1
605354,534,1
605358,536,1
605362,538,1
605366,538,1
605370,536,1
605374,536,1
605378,538,1
605382,541,1
605386,541,1
605390,541,1
605394,540,1
605398,540,1
605402,540,1
605406,540,1
605410,538,1
605414,538,1
605418,538,1
605422,538,1
605426,536,1
605430,535,1
605434,535,1
605438,536,1
605442,538,1
605446,538,1
605450,538,1
605454,540,1
605458,542,1
605462,542,1
605466,542,1
605470,541,1
605474,540,1
605478,541,1
605482,542,1
605486,542,1
605490,542,1
605494,541,1
605498,541,1
605502,542,1
605506,540,1
605510,538,1
605514,542,1
605518,546,1
605522,552,1
605526,554,1
605530,559,1
605534,562,1
605538,561,1
605542,561,1
605546,557,1
605550,554,1
605554,550,1
605558,549,1
605562,547,1
605566,544,1
605570,542,1
605574,541,1
605578,541,1
605582,542,1
605586,541,1
605590,540,1
605594,541,1
605598,541,1
605602,541,1
605606,538,1
605610,537,1
605614,536,1
605618,529,1
605622,516,1
605626,499,1
605630,470,1
605634,437,1
605638,415,1
605642,436,1
605646,494,1
605650,594,1
605654,724,1
605658,809,1
605662,765,1
605666,637,1
605670,552,1
605674,562,1
605678,626,1
605682,675,1
605686,675,1
605690,646,1
605694,596,1
605698,553,1
605702,528,1
605706,518,1
605710,512,1
605714,509,1
605718,509,1
605722,513,1
605726,514,1
605730,514,1
605734,513,1
605738,514,1
605742,514,1
605746,513,1
605750,510,1
605754,509,1
605758,512,1
605762,514,1
605766,516,1
605770,517,1
605774,516,1
605778,516,1
605782,517,1
605786,517,1
605790,517,1
605794,518,1
605798,519,1
605802,522,1
605806,523,1
605810,523,1
605814,523,1
605818,525,1
605822,528,1
605826,529,1
605830,531,1
605834,533,1
605838,534,1
605842,537,1
605846,541,1
605850,542,1
605854,546,1
605858,554,1
605862,560,1
605866,562,1
605870,566,1
605874,570,1
605878,576,1
605882,580,1
605886,582,1
605890,584,1
605894,585,1
605898,589,1
605902,595,1
605906,596,1
605910,595,1
605914,593,1
605918,591,1
605922,589,1
605926,583,1
605930,579,1
605934,573,1
605938,568,1
605942,561,1
605946,553,1
605950,545,1
605954,540,1
605958,535,1
605962,531,1
605966,526,1
605970,522,1
605974,518,1
605978,516,1
605982,514,1
605986,512,1
605990,512,1
605994,512,1
605998,512,1
606002,512,1
606006,512,1
606010,509,1
606014,508,1
606018,508,1
606022,508,1
606026,508,1
606030,508,1
606034,508,1
606038,509,1
606042,510,1
606046,509,1
606050,507,1
606054,507,1
606058,509,1
606062,512,1
606066,511,1
606070,509,1
606074,508,1
606078,509,1
606082,513,1
606086,514,1
606090,514,1
606094,514,1
606098,516,1
606102,517,1
606106,517,1
606110,516,1
606114,517,1
606118,519,1
606122,522,1
606126,523,1
606130,522,1
606134,523,1
606138,525,1
606142,526,1
606146,526,1
606150,525,1
606154,526,1
606158,526,1
606162,528,1
606166,529,1
606170,528,1
606174,528,1
606178,529,1
606182,532,1
606186,533,1
606190,534,1
606194,536,1
606198,536,1
606202,537,1
606206,537,1
606210,536,1
606214,535,1
606218,535,1
606222,538,1
606226,541,1
606230,541,1
606234,541,1
606238,541,1
606242,541,1
606246,541,1
606250,540,1
606254,541,1
606258,541,1
606262,542,1
606266,542,1
606270,542,1
606274,541,1
606278,541,1
606282,541,1
606286,542,1
606290,542,1
606294,542,1
606298,541,1
606302,541,1
606306,543,1
606310,543,1
606314,541,1
606318,541,1
606322,544,1
606326,546,1
606330,552,1
606334,556,1
606338,564,1
606342,562,1
606346,561,1
606350,559,1
606354,557,1
606358,555,1
606362,553,1
606366,549,1
606370,544,1
606374,541,1
606378,541,1
606382,543,1
606386,544,1
606390,542,1
606394,540,1
606398,538,1
606402,538,1
606406,538,1
606410,536,1
606414,536,1
606418,535,1
606422,531,1
606426,519,1
606430,507,1
606434,489,1
606438,462,1
606442,438,1
606446,433,1
606450,464,1
606454,545,1
606458,673,1
606462,799,1
606466,808,1
606470,694,1
606474,560,1
606478,489,1
606482,508,1
606486,581,1
606490,639,1
606494,652,1
606498,637,1
606502,595,1
606506,554,1
606510,530,1
606514,518,1
606518,514,1
606522,516,1
606526,516,1
606530,517,1
606534,518,1
606538,518,1
606542,519,1
606546,518,1
606550,516,1
606555,514,1
606559,514,1
606563,516,1
606567,517,1
606571,517,1
606575,519,1
606579,519,1
606583,521,1
606587,520,1
606591,519,1
606595,519,1
606599,521,1
606603,522,1
606607,523,1
606611,523,1
606615,524,1
606619,526,1
606623,529,1
606627,531,1
606631,532,1
606635,534,1
606639,536,1
606643,540,1
606647,542,1
606651,544,1
606655,546,1
606659,552,1
606663,556,1
606667,562,1
606671,566,1
606675,568,1
606679,573,1
606683,579,1
606687,582,1
606691,586,1
606695,588,1
606699,591,1
606703,595,1
606707,598,1
606711,600,1
606715,598,1
606719,598,1
606723,597,1
606727,594,1
606731,588,1
606735,581,1
606739,578,1
606743,571,1
606747,562,1
606751,554,1
606755,545,1
606759,538,1
606763,534,1
606767,531,1
606771,525,1
606775,519,1
606779,516,1
606783,514,1
606787,514,1
606791,513,1
606795,509,1
606799,508,1
606803,509,1
606807,509,1
606811,508,1
606815,507,1
606819,507,1
606823,508,1
606827,509,1
606831,508,1
606835,508,1
606839,507,1
606843,507,1
606847,507,1
606851,506,1
606855,505,1
606859,507,1
606863,507,1
606867,508,1
606871,507,1
606875,507,1
606879,508,1
606883,508,1
606887,509,1
606891,508,1
606895,508,1
606899,509,1
606903,512,1
606907,514,1
606911,516,1
606915,516,1
606919,516,1
606923,517,1
606927,518,1
606931,518,1
606935,517,1
606939,519,1
606943,521,1
606947,522,1
606951,522,1
606955,521,1
606959,522,1
606963,523,1
606967,525,1
606971,525,1
606975,524,1
606979,525,1
606983,526,1
606987,528,1
606991,529,1
606995,529,1
606999,529,1
607003,529,1
607007,530,1
607011,531,1
607015,532,1
607019,532,1
607023,533,1
607027,533,1
607031,533,1
607035,532,1
607039,532,1
607043,533,1
607047,533,1
607051,533,1
607055,532,1
607059,533,1
607063,534,1
607067,534,1
607071,534,1
607075,534,1
607079,534,1
607083,535,1
607087,536,1
607091,536,1
607095,536,1
607099,536,1
607103,537,1
607107,538,1
607111,536,1
607115,536,1
607119,537,1
607123,540,1
607127,537,1
607131,536,1
607135,541,1
607139,545,1
607143,552,1
607147,556,1
607151,561,1
607155,561,1
607159,560,1
607163,560,1
607167,556,1
607171,553,1
607175,547,1
607179,545,1
607183,543,1
607187,542,1
607191,541,1
607195,540,1
607199,540,1
607203,541,1
607207,541,1
607211,538,1
607215,537,1
607219,538,1
607223,538,1
607227,538,1
607231,536,1
607235,532,1
607239,522,1
607243,512,1
607247,497,1
607251,469,1
607255,437,1
607259,423,1
607263,446,1
607267,511,1
607271,618,1
607275,748,1
607279,811,1
607283,745,1
607287,609,1
607291,528,1
607295,541,1
607299,605,1
607303,655,1
607307,662,1
607311,640,1
607315,593,1
607319,553,1
607323,529,1
607327,521,1
607331,518,1
607335,517,1
607339,517,1
607343,518,1
607347,519,1
607351,519,1
607355,518,1
607359,518,1
607363,519,1
607367,521,1
607371,521,1
607375,521,1
607379,521,1
607383,522,1
607387,523,1
607391,522,1
607395,521,1
607399,521,1
607403,522,1
607407,523,1
607411,524,1
607415,525,1
607419,526,1
607423,529,1
607427,533,1
607431,534,1
607435,533,1
607439,534,1
607443,538,1
607447,542,1
607451,542,1
607455,542,1
607459,543,1
607463,545,1
607467,549,1
607471,555,1
607475,560,1
607479,562,1
607483,568,1
607487,572,1
607491,573,1
607495,577,1
607499,581,1
607503,586,1
607507,590,1
607511,592,1
607515,594,1
607519,595,1
607523,597,1
607527,600,1
607531,600,1
607535,597,1
607539,594,1
607543,590,1
607547,585,1
607551,578,1
607555,569,1
607559,564,1
607563,556,1
607567,546,1
607571,538,1
607575,533,1
607579,529,1
607583,526,1
607587,522,1
607591,518,1
607595,516,1
607599,514,1
607603,513,1
607607,512,1
607611,509,1
607615,509,1
607619,509,1
607623,511,1
607627,512,1
607631,511,1
607635,508,1
607639,507,1
607643,506,1
607647,507,1
607651,508,1
607655,508,1
607659,508,1
607663,511,1
607667,513,1
607671,513,1
607675,512,1
607679,512,1
607683,513,1
607687,514,1
607691,514,1
607695,513,1
607699,513,1
607703,514,1
607707,516,1
607711,516,1
607715,517,1
607719,517,1
607723,519,1
607727,521,1
607731,521,1
607735,521,1
607739,521,1
607743,523,1
607747,525,1
607751,525,1
607755,523,1
607759,522,1
607763,525,1
607767,528,1
607771,528,1
607775,526,1
607779,526,1
607783,528,1
607787,531,1
607791,530,1
607795,529,1
607799,529,1
607803,531,1
607807,532,1
607811,532,1
607815,531,1
607819,530,1
607823,532,1
607827,535,1
607831,536,1
607835,536,1
607839,537,1
607843,538,1
607847,538,1
607851,538,1
607855,537,1
607859,538,1
607863,540,1
607867,542,1
607871,541,1
607875,538,1
607879,538,1
607883,540,1
607887,541,1
607891,541,1
607895,538,1
607899,538,1
607903,538,1
607907,538,1
607911,541,1
607915,541,1
607919,541,1
607923,541,1
607927,541,1
607931,538,1
607935,537,1
607939,538,1
607943,541,1
607947,543,1
607951,543,1
607955,543,1
607959,543,1
607963,543,1
607967,543,1
607971,542,1
607975,541,1
607979,538,1
607983,537,1
607987,538,1
607991,537,1
607995,536,1
607999,541,1
608003,545,1
608007,549,1
608012,552,1
608016,555,1
608020,560,1
608024,561,1
608028,561,1
608032,558,1
608036,555,1
608040,553,1
608044,552,1
608048,547,1
608052,544,1
608056,542,1
608060,542,1
608064,544,1
608068,544,1
608072,541,1
608076,541,1
608080,541,1
608084,541,1
608088,542,1
608092,542,1
608096,541,1
608100,536,1
608104,532,1
608108,521,1
608112,508,1
608116,489,1
608120,459,1
608124,428,1
608128,426,1
608132,460,1
608136,537,1
608140,655,1
608144,781,1
608148,805,1
608152,705,1
608156,579,1
608160,529,1
608164,570,1
608168,637,1
608172,672,1
608176,664,1
608180,629,1
608184,581,1
608188,544,1
608192,525,1
608196,518,1
608200,517,1
608204,517,1
608208,517,1
608212,517,1
608216,518,1
608220,518,1
608224,518,1
608228,518,1
608232,519,1
608236,519,1
608240,518,1
608244,519,1
608248,520,1
608252,519,1
608256,518,1
608260,518,1
608264,518,1
608268,519,1
608272,519,1
608276,521,1
608280,522,1
608284,524,1
608288,525,1
608292,525,1
608296,525,1
608300,526,1
608304,532,1
608308,534,1
608312,535,1
608316,535,1
608320,536,1
608324,538,1
608328,542,1
608332,545,1
608336,547,1
608340,552,1
608344,555,1
608348,560,1
608352,562,1
608356,567,1
608360,572,1
608364,577,1
608368,580,1
608372,582,1
608376,586,1
608380,589,1
608384,591,1
608388,595,1
608392,596,1
608396,596,1
608400,596,1
608404,596,1
608408,594,1
608412,589,1
608416,584,1
608420,578,1
608424,570,1
608428,566,1
608432,560,1
608436,553,1
608440,545,1
608444,541,1
608448,536,1
608452,532,1
608456,525,1
608460,521,1
608464,521,1
608468,519,1
608472,518,1
608476,516,1
608480,512,1
608484,511,1
608488,511,1
608492,511,1
608496,509,1
608500,508,1
608504,509,1
608508,512,1
608512,514,1
608516,512,1
608520,511,1
608524,510,1
608528,512,1
608532,513,1
608536,512,1
608540,513,1
608544,513,1
608548,513,1
608552,512,1
608556,509,1
608560,508,1
608564,509,1
608568,512,1
608572,512,1
608576,512,1
608580,514,1
608584,517,1
608588,519,1
608592,519,1
608596,518,1
608600,519,1
608604,521,1
608608,522,1
608612,522,1
608616,521,1
608620,521,1
608624,522,1
608628,524,1
608632,525,1
608636,525,1
608640,525,1
608644,526,1
608648,528,1
608652,531,1
608656,533,1
608660,533,1
608664,532,1
608668,532,1
608672,531,1
608676,531,1
608680,533,1
608684,535,1
608688,536,1
608692,536,1
608696,537,1
608700,537,1
608704,538,1
608708,537,1
608712,537,1
608716,536,1
608720,536,1
608724,536,1
608728,538,1
608732,538,1
608736,537,1
608740,538,1
608744,538,1
608748,538,1
608752,538,1
608756,537,1
608760,536,1
608764,537,1
608768,538,1
608772,538,1
608776,536,1
608780,535,1
608784,536,1
608788,540,1
608792,538,1
608796,536,1
608800,536,1
608804,537,1
608808,540,1
608812,538,1
608816,540,1
608820,543,1
608824,546,1
608828,553,1
608832,559,1
608836,562,1
608840,564,1
608844,562,1
608848,561,1
608852,559,1
608856,554,1
608860,552,1
608864,550,1
608868,547,1
608872,542,1
608876,538,1
608880,540,1
608884,542,1
608888,542,1
608892,542,1
608896,541,1
608900,541,1
608904,541,1
608908,541,1
608912,540,1
608916,536,1
608920,533,1
608924,523,1
608928,513,1
608932,495,1
608936,462,1
608940,433,1
608944,428,1
608948,461,1
608952,541,1
608956,664,1
608960,793,1
608964,813,1
608968,711,1
608972,572,1
608976,496,1
608980,512,1
608984,583,1
608988,640,1
608992,652,1
608996,637,1
609000,594,1
609004,553,1
609008,528,1
609012,517,1
609016,513,1
609020,513,1
609024,514,1
609028,516,1
609032,516,1
609036,513,1
609040,512,1
609044,514,1
609048,517,1
609052,517,1
609056,514,1
609060,514,1
609064,517,1
609068,520,1
609072,519,1
609076,518,1
609080,518,1
609084,521,1
609088,523,1
609092,523,1
609096,522,1
609100,522,1
609104,525,1
609108,528,1
609112,529,1
609116,528,1
609120,528,1
609124,531,1
609128,534,1
609132,535,1
609136,536,1
609140,541,1
609144,544,1
609148,547,1
609152,552,1
609156,553,1
609160,556,1
609164,560,1
609168,567,1
609172,572,1
609176,577,1
609180,580,1
609184,584,1
609188,588,1
609192,592,1
609196,595,1
609200,597,1
609204,600,1
609208,601,1
609212,602,1
609216,600,1
609220,597,1
609224,596,1
609228,592,1
609232,586,1
609236,578,1
609240,570,1
609244,562,1
609248,556,1
609252,550,1
609256,542,1
609260,534,1
609264,529,1
609268,526,1
609272,523,1
609276,519,1
609280,517,1
609284,516,1
609288,516,1
609292,514,1
609296,512,1
609300,510,1
609304,512,1
609308,512,1
609312,509,1
609316,507,1
609320,506,1
609324,506,1
609328,505,1
609332,505,1
609336,505,1
609340,507,1
609344,507,1
609348,508,1
609352,508,1
609356,507,1
609360,506,1
609364,507,1
609368,508,1
609372,508,1
609376,507,1
609380,506,1
609384,507,1
609388,510,1
609392,513,1
609396,512,1
609400,512,1
609404,512,1
609408,514,1
609412,517,1
609416,516,1
609420,514,1
609424,516,1
609428,517,1
609432,519,1
609436,520,1
609440,522,1
609444,523,1
609448,525,1
609452,525,1
609456,523,1
609460,523,1
609464,524,1
609468,526,1
609473,528,1
609477,526,1
609481,526,1
609485,528,1
609489,531,1
609493,532,1
609497,531,1
609501,531,1
609505,532,1
609509,533,1
609513,533,1
609517,531,1
609521,531,1
609525,532,1
609529,534,1
609533,535,1
609537,535,1
609541,534,1
609545,535,1
609549,536,1
609553,537,1
609557,536,1
609561,536,1
609565,538,1
609569,541,1
609573,541,1
609577,538,1
609581,536,1
609585,536,1
609589,536,1
609593,536,1
609597,535,1
609601,535,1
609605,536,1
609609,538,1
609613,541,1
609617,538,1
609621,536,1
609625,535,1
609629,536,1
609633,540,1
609637,540,1
609641,540,1
609645,540,1
609649,541,1
609653,542,1
609657,541,1
609661,542,1
609665,545,1
609669,548,1
609673,553,1
609677,556,1
609681,561,1
609685,562,1
609689,561,1
609693,557,1
609697,555,1
609701,550,1
609705,546,1
609709,545,1
609713,543,1
609717,541,1
609721,538,1
609725,540,1
609729,541,1
609733,541,1
609737,536,1
609741,535,1
609745,535,1
609749,535,1
609753,536,1
609757,536,1
609761,534,1
609765,531,1
609769,522,1
609773,509,1
609777,490,1
609781,461,1
609785,429,1
609789,417,1
609793,448,1
609797,516,1
609801,626,1
609805,758,1
609809,809,1
609813,728,1
609817,595,1
609821,528,1
609825,558,1
609829,625,1
609833,666,1
609837,663,1
609841,634,1
609845,586,1
609849,545,1
609853,523,1
609857,514,1
609861,512,1
609865,511,1
609869,512,1
609873,512,1
609877,512,1
609881,511,1
609885,512,1
609889,513,1
609893,514,1
609897,516,1
609901,516,1
609905,516,1
609909,518,1
609913,521,1
609917,519,1
609921,518,1
609925,519,1
609929,521,1
609933,523,1
609937,523,1
609941,523,1
609945,523,1
609949,525,1
609953,525,1
609957,523,1
609961,522,1
609965,525,1
609969,529,1
609973,532,1
609977,533,1
609981,534,1
609985,536,1
609989,541,1
609993,544,1
609997,546,1
610001,549,1
610005,553,1
610009,556,1
610013,561,1
610017,567,1
610021,571,1
610025,576,1
610029,582,1
610033,588,1
610037,589,1
610041,590,1
610045,594,1
610049,596,1
610053,598,1
610057,598,1
610061,597,1
610065,597,1
610069,596,1
610073,593,1
610077,586,1
610081,579,1
610085,570,1
610089,562,1
610093,554,1
610097,546,1
610101,541,1
610105,534,1
610109,529,1
610113,524,1
610117,519,1
610121,516,1
610125,514,1
610129,513,1
610133,513,1
610137,509,1
610141,507,1
610145,505,1
610149,505,1
610153,506,1
610157,506,1
610161,507,1
610165,507,1
610169,508,1
610173,506,1
610177,504,1
610181,502,1
610185,504,1
610189,504,1
610193,502,1
610197,502,1
610201,504,1
610205,506,1
610209,508,1
610213,508,1
610217,507,1
610221,506,1
610225,507,1
610229,508,1
610233,509,1
610237,512,1
610241,512,1
610245,513,1
610249,513,1
610253,513,1
610257,513,1
610261,514,1
610265,514,1
610269,517,1
610273,519,1
610277,518,1
610281,518,1
610285,519,1
610289,522,1
610293,522,1
610297,521,1
610301,521,1
610305,522,1
610309,522,1
610313,523,1
610317,523,1
610321,523,1
610325,526,1
610329,528,1
610333,530,1
610337,530,1
610341,531,1
610345,532,1
610349,533,1
610353,533,1
610357,532,1
610361,532,1
610365,532,1
610369,534,1
610373,535,1
610377,534,1
610381,532,1
610385,532,1
610389,533,1
610393,533,1
610397,532,1
610401,532,1
610405,532,1
610409,534,1
610413,535,1
610417,534,1
610421,533,1
610425,534,1
610429,535,1
610433,535,1
610437,536,1
610441,536,1
610445,536,1
610449,537,1
610453,538,1
610457,537,1
610461,535,1
610465,536,1
610469,538,1
610473,540,1
610477,541,1
610481,538,1
610485,536,1
610489,535,1
610493,536,1
610497,537,1
610501,538,1
610505,541,1
610509,544,1
610513,546,1
610517,547,1
610521,552,1
610525,556,1
610529,561,1
610533,562,1
610537,561,1
610541,556,1
610545,553,1
610549,549,1
610553,547,1
610557,545,1
610561,542,1
610565,538,1
610569,540,1
610573,542,1
610577,543,1
610581,542,1
610585,541,1
610589,538,1
610593,538,1
610597,537,1
610601,536,1
610605,536,1
610609,535,1
610613,529,1
610617,516,1
610621,502,1
610625,483,1
610629,451,1
610633,427,1
610637,430,1
610641,473,1
610645,567,1
610649,696,1
610653,807,1
610657,792,1
610661,664,1
610665,543,1
610669,497,1
610673,542,1
610677,618,1
610681,661,1
610685,660,1
610689,630,1
610693,584,1
610697,546,1
610701,526,1
610705,517,1
610709,513,1
610713,512,1
610717,512,1
610721,512,1
610725,513,1
610729,514,1
610733,516,1
610737,514,1
610741,513,1
610745,514,1
610749,516,1
610753,518,1
610757,518,1
610761,518,1
610765,518,1
610769,518,1
610773,519,1
610777,518,1
610781,518,1
610785,519,1
610789,519,1
610793,521,1
610797,521,1
610801,521,1
610805,523,1
610809,525,1
610813,525,1
610817,526,1
610821,528,1
610825,530,1
610829,534,1
610833,538,1
610837,542,1
610841,543,1
610845,546,1
610849,552,1
610853,556,1
610857,560,1
610861,564,1
610865,568,1
610869,573,1
610874,579,1
610878,582,1
610882,585,1
610886,586,1
610890,590,1
610894,594,1
610898,595,1
610902,595,1
610906,596,1
610910,597,1
610914,595,1
610918,590,1
610922,582,1
610926,579,1
610930,573,1
610934,568,1
610938,561,1
610942,554,1
610946,546,1
610950,541,1
610954,535,1
610958,528,1
610962,522,1
610966,519,1
610970,517,1
610974,514,1
610978,513,1
610982,513,1
610986,511,1
610990,511,1
610994,512,1
610998,508,1
611002,508,1
611006,508,1
611010,508,1
611014,507,1
611018,505,1
611022,502,1
611026,504,1
611030,505,1
611034,506,1
611038,506,1
611042,505,1
611046,505,1
611050,506,1
611054,508,1
611058,507,1
611062,507,1
611066,507,1
611070,508,1
611074,508,1
611078,508,1
611082,509,1
611086,513,1
611090,514,1
611094,514,1
611098,514,1
611102,516,1
611106,516,1
611110,518,1
611114,519,1
611118,519,1
611122,518,1
611126,521,1
611130,522,1
611134,522,1
611138,522,1
611142,521,1
611146,521,1
611150,523,1
611154,526,1
611158,528,1
611162,526,1
611166,528,1
611170,531,1
611174,532,1
611178,531,1
611182,529,1
611186,530,1
611190,531,1
611194,533,1
611198,534,1
611202,535,1
611206,536,1
611210,535,1
611214,536,1
611218,536,1
611222,535,1
611226,535,1
611230,536,1
611234,538,1
611238,538,1
611242,536,1
611246,535,1
611250,536,1
611254,540,1
611258,538,1
611262,538,1
611266,537,1
611270,538,1
611274,541,1
611278,541,1
611282,541,1
611286,542,1
611290,543,1
611294,543,1
611298,542,1
611302,543,1
611306,546,1
611310,552,1
611314,556,1
611318,562,1
611322,567,1
611326,564,1
611330,561,1
611334,562,1
611338,560,1
611342,554,1
611346,552,1
611350,550,1
611354,547,1
611358,544,1
611362,541,1
611366,542,1
611370,544,1
611374,546,1
611378,545,1
611382,543,1
611386,542,1
611390,542,1
611394,542,1
611398,542,1
611402,541,1
611406,535,1
611410,526,1
611414,513,1
611418,497,1
611422,471,1
611426,440,1
611430,429,1
611434,451,1
611438,518,1
611442,627,1
611446,762,1
611450,818,1
611454,745,1
611458,605,1
611462,516,1
611466,517,1
611470,580,1
611474,639,1
611478,654,1
611482,642,1
611486,604,1
611490,562,1
611494,536,1
611498,523,1
611502,517,1
611506,513,1
611510,516,1
611514,519,1
611518,519,1
611522,518,1
611526,517,1
611530,517,1
611534,518,1
611538,519,1
611542,519,1
611546,518,1
611550,518,1
611554,519,1
611558,519,1
611562,519,1
611566,519,1
611570,521,1
611574,523,1
611578,524,1
611582,525,1
611586,525,1
611590,528,1
611594,531,1
611598,532,1
611602,532,1
611606,534,1
611610,536,1
611614,538,1
611618,541,1
611622,542,1
611626,544,1
611630,546,1
611634,550,1
611638,552,1
611642,554,1
611646,557,1
611650,561,1
611654,567,1
611658,571,1
611662,576,1
611666,579,1
611670,582,1
611674,588,1
611678,591,1
611682,594,1
611686,596,1
611690,598,1
611694,601,1
611698,602,1
611702,601,1
611706,598,1
611710,595,1
611714,592,1
611718,588,1
611722,580,1
611726,571,1
611730,564,1
611734,555,1
611738,547,1
611742,541,1
611746,535,1
611750,529,1
611754,523,1
611758,521,1
611762,517,1
611766,514,1
611770,514,1
611774,514,1
611778,513,1
611782,509,1
611786,508,1
611790,509,1
611794,509,1
611798,508,1
611802,507,1
611806,507,1
611810,507,1
611814,507,1
611818,507,1
611822,506,1
611826,506,1
611830,506,1
611834,507,1
611838,508,1
611842,508,1
611846,507,1
611850,508,1
611854,511,1
611858,510,1
611862,508,1
611866,507,1
611870,508,1
611874,512,1
611878,512,1
611882,509,1
611886,509,1
611890,512,1
611894,514,1
611898,516,1
611902,514,1
611906,514,1
611910,516,1
611914,518,1
611918,519,1
611922,518,1
611926,519,1
611930,521,1
611934,522,1
611938,522,1
611942,522,1
611946,522,1
611950,522,1
611954,523,1
611958,525,1
611962,526,1
611966,528,1
611970,526,1
611974,528,1
611978,529,1
611982,529,1
611986,528,1
611990,530,1
611994,532,1
611998,533,1
612002,532,1
612006,532,1
612010,533,1
612014,535,1
612018,535,1
612022,534,1
612026,534,1
612030,535,1
612034,537,1
612038,538,1
612042,538,1
612046,537,1
612050,538,1
612054,538,1
612058,540,1
612062,538,1
612066,538,1
612070,537,1
612074,537,1
612078,537,1
612082,535,1
612086,535,1
612090,536,1
612094,538,1
612098,538,1
612102,537,1
612106,538,1
612110,538,1
612114,540,1
612118,538,1
612122,536,1
612126,536,1
612130,538,1
612134,538,1
612138,538,1
612142,537,1
612146,538,1
612150,540,1
612154,540,1
612158,541,1
612162,538,1
612166,538,1
612170,538,1
612174,537,1
612178,538,1
612182,541,1
612186,543,1
612190,547,1
612194,553,1
612198,559,1
612202,558,1
612206,556,1
612210,556,1
612214,555,1
612218,554,1
612222,550,1
612226,546,1
612230,543,1
612234,541,1
612238,538,1
612242,538,1
612246,538,1
612250,540,1
612254,541,1
612258,541,1
612262,538,1
612266,536,1
612270,534,1
612274,534,1
612278,534,1
612282,531,1
612286,521,1
612290,508,1
612294,493,1
612298,462,1
612302,428,1
612306,414,1
612310,444,1
612314,514,1
612318,625,1
612322,754,1
612326,809,1
612330,733,1
612334,606,1
612338,545,1
612342,577,1
612347,639,1
612351,675,1
612355,668,1
612359,634,1
612363,582,1
612367,542,1
612371,523,1
612375,517,1
612379,516,1
612383,514,1
612387,514,1
612391,514,1
612395,514,1
612399,514,1
612403,514,1
612407,514,1
612411,516,1
612415,517,1
612419,519,1
612423,518,1
612427,516,1
612431,517,1
612435,517,1
612439,517,1
612443,517,1
612447,518,1
612451,519,1
612455,521,1
612459,520,1
612463,519,1
612467,521,1
612471,523,1
612475,525,1
612479,526,1
612483,526,1
612487,525,1
612491,528,1
612495,531,1
612499,533,1
612503,534,1
612507,536,1
612511,541,1
612515,545,1
612519,547,1
612523,550,1
612527,553,1
612531,555,1
612535,561,1
612539,567,1
612543,569,1
612547,572,1
612551,577,1
612555,581,1
612559,585,1
612563,588,1
612567,589,1
612571,590,1
612575,594,1
612579,595,1
612583,594,1
612587,590,1
612591,589,1
612595,584,1
612599,578,1
612603,569,1
612607,562,1
612611,555,1
612615,549,1
612619,543,1
612623,536,1
612627,529,1
612631,523,1
612635,521,1
612639,518,1
612643,514,1
612647,509,1
612651,508,1
612655,508,1
612659,509,1
612663,508,1
612667,507,1
612671,507,1
612675,508,1
612679,508,1
612683,507,1
612687,506,1
612691,506,1
612695,507,1
612699,506,1
612703,504,1
612707,504,1
612711,506,1
612715,508,1
612719,512,1
612723,511,1
612727,509,1
612731,509,1
612735,509,1
612739,510,1
612743,512,1
612747,512,1
612751,513,1
612755,514,1
612759,514,1
612763,516,1
612767,517,1
612771,519,1
612775,522,1
612779,522,1
612783,522,1
612787,522,1
612791,522,1
612795,523,1
612799,525,1
612803,526,1
612807,526,1
612811,528,1
612815,530,1
612819,531,1
612823,531,1
612827,532,1
612831,532,1
612835,533,1
612839,533,1
612843,532,1
612847,531,1
612851,532,1
612855,533,1
612859,536,1
612863,536,1
612867,536,1
612871,536,1
612875,537,1
612879,538,1
612883,536,1
612887,535,1
612891,535,1
612895,536,1
612899,537,1
612903,537,1
612907,537,1
612911,538,1
612915,541,1
612919,542,1
612923,542,1
612927,541,1
612931,541,1
612935,541,1
612939,540,1
612943,536,1
612947,535,1
612951,535,1
612955,538,1
612959,541,1
612963,541,1
612967,536,1
612971,536,1
612975,537,1
612979,542,1
612983,542,1
612987,538,1
612991,538,1
612995,541,1
612999,542,1
613003,541,1
613007,542,1
613011,544,1
613015,547,1
613019,552,1
613023,554,1
613027,559,1
613031,561,1
613035,561,1
613039,560,1
613043,556,1
613047,553,1
613051,549,1
613055,547,1
613059,546,1
613063,542,1
613067,541,1
613071,540,1
613075,541,1
613079,540,1
613083,537,1
613087,538,1
613091,541,1
613095,541,1
613099,541,1
613103,538,1
613107,535,1
613111,533,1
613115,526,1
613119,516,1
613123,502,1
613127,478,1
613131,444,1
613135,426,1
613139,438,1
613143,493,1
613147,594,1
613151,734,1
613155,817,1
613159,770,1
613163,632,1
613167,523,1
613171,493,1
613175,544,1
613179,619,1
613183,657,1
613187,655,1
613191,626,1
613195,579,1
613199,543,1
613203,522,1
613207,513,1
613211,512,1
613215,514,1
613219,517,1
613223,518,1
613227,517,1
613231,516,1
613235,516,1
613239,517,1
613243,518,1
613247,517,1
613251,516,1
613255,517,1
613259,518,1
613263,519,1
613267,519,1
613271,519,1
613275,518,1
613279,519,1
613283,519,1
613287,521,1
613291,523,1
613295,525,1
613299,528,1
613303,528,1
613307,529,1
613311,532,1
613315,533,1
613319,533,1
613323,534,1
613327,534,1
613331,536,1
613335,542,1
613339,546,1
613343,552,1
613347,554,1
613351,556,1
613355,561,1
613359,567,1
613363,570,1
613367,572,1
613371,578,1
613375,582,1
613379,586,1
613383,589,1
613387,590,1
613391,594,1
613395,597,1
613399,601,1
613403,603,1
613407,602,1
613411,602,1
613415,601,1
613419,596,1
613423,590,1
613427,581,1
613431,574,1
613435,568,1
613439,562,1
613443,556,1
613447,546,1
613451,540,1
613455,534,1
613459,531,1
613463,526,1
613467,522,1
613471,519,1
613475,518,1
613479,518,1
613483,516,1
613487,514,1
613491,513,1
613495,513,1
613499,513,1
613503,511,1
613507,509,1
613511,509,1
613515,509,1
613519,510,1
613523,511,1
613527,509,1
613531,509,1
613535,509,1
613539,512,1
613543,512,1
613547,512,1
613551,511,1
613555,512,1
613559,512,1
613563,512,1
613567,512,1
613571,513,1
613575,514,1
613579,517,1
613583,518,1
613587,517,1
613591,518,1
613595,521,1
613599,523,1
613603,523,1
613607,522,1
613611,522,1
613615,522,1
613619,523,1
613623,523,1
613627,523,1
613631,523,1
613635,525,1
613639,526,1
613643,526,1
613647,526,1
613651,528,1
613655,529,1
613659,529,1
613663,528,1
613667,526,1
613671,529,1
613675,533,1
613679,533,1
613683,533,1
613687,532,1
613691,533,1
613695,534,1
613699,535,1
613703,535,1
613707,534,1
613711,534,1
613715,535,1
613719,535,1
613723,535,1
613727,535,1
613731,534,1
613736,535,1
613740,536,1
613744,537,1
613748,536,1
613752,536,1
613756,536,1
613760,536,1
613764,535,1
613768,535,1
613772,536,1
613776,536,1
613780,537,1
613784,536,1
613788,535,1
613792,534,1
613796,535,1
613800,537,1
613804,538,1
613808,538,1
613812,536,1
613816,538,1
613820,538,1
613824,536,1
613828,536,1
613832,542,1
613836,547,1
613840,553,1
613844,557,1
613848,561,1
613852,561,1
613856,561,1
613860,561,1
613864,555,1
613868,549,1
613872,546,1
613876,546,1
613880,543,1
613884,541,1
613888,536,1
613892,536,1
613896,537,1
613900,538,1
613904,538,1
613908,535,1
613912,534,1
613916,534,1
613920,536,1
613924,536,1
613928,535,1
613932,532,1
613936,521,1
613940,508,1
613944,493,1
613948,463,1
613952,430,1
613956,417,1
613960,447,1
613964,514,1
613968,624,1
613972,758,1
613976,811,1
613980,732,1
613984,596,1
613988,520,1
613992,537,1
613996,603,1
614000,652,1
614004,655,1
614008,633,1
614012,589,1
614016,547,1
614020,525,1
614024,517,1
614028,513,1
614032,511,1
614036,509,1
614040,512,1
614044,512,1
614048,511,1
614052,509,1
614056,509,1
614060,512,1
614064,512,1
614068,509,1
614072,512,1
614076,513,1
614080,516,1
614084,516,1
614088,516,1
614092,516,1
614096,516,1
614100,518,1
614104,519,1
614108,519,1
614112,519,1
614116,521,1
614120,523,1
614124,523,1
614128,525,1
614132,526,1
614136,529,1
614140,532,1
614144,533,1
614148,534,1
614152,536,1
614156,541,1
614160,544,1
614164,545,1
614168,547,1
614172,550,1
614176,555,1
614180,562,1
614184,568,1
614188,570,1
614192,573,1
614196,578,1
614200,582,1
614204,586,1
614208,589,1
614212,592,1
614216,594,1
614220,596,1
614224,596,1
614228,595,1
614232,595,1
614236,595,1
614240,592,1
614244,588,1
614248,579,1
614252,570,1
614256,562,1
614260,555,1
614264,548,1
614268,542,1
614272,535,1
614276,529,1
614280,524,1
614284,519,1
614288,516,1
614292,514,1
614296,514,1
614300,514,1
614304,513,1
614308,509,1
614312,507,1
614316,508,1
614320,509,1
614324,509,1
614328,508,1
614332,508,1
614336,508,1
614340,508,1
614344,507,1
614348,507,1
614352,506,1
614356,506,1
614360,508,1
614364,509,1
614368,508,1
614372,507,1
614376,507,1
614380,508,1
614384,509,1
614388,508,1
614392,508,1
614396,508,1
614400,512,1
614404,516,1
614408,514,1
614412,514,1
614416,514,1
614420,518,1
614424,520,1
614428,519,1
614432,521,1
614436,521,1
614440,522,1
614444,522,1
614448,521,1
614452,521,1
614456,522,1
614460,525,1
614464,526,1
614468,526,1
614472,526,1
614476,526,1
614480,526,1
614484,529,1
614488,530,1
614492,530,1
614496,531,1
614500,531,1
614504,530,1
614508,531,1
614512,533,1
614516,533,1
614520,535,1
614524,535,1
614528,534,1
614532,533,1
614536,532,1
614540,533,1
614544,534,1
614548,534,1
614552,533,1
614556,533,1
614560,535,1
614564,536,1
614568,535,1
614572,535,1
614576,535,1
614580,536,1
614584,536,1
614588,535,1
614592,535,1
614596,536,1
614600,536,1
614604,538,1
614608,540,1
614612,541,1
614616,541,1
614620,542,1
614624,542,1
614628,541,1
614632,543,1
614636,544,1
614640,545,1
614644,545,1
614648,542,1
614652,540,1
614656,541,1
614660,541,1
614664,542,1
614668,542,1
614672,541,1
614676,538,1
614680,538,1
614684,538,1
614688,538,1
614692,540,1
614696,538,1
614700,540,1
614704,543,1
614708,545,1
614712,546,1
614716,552,1
614720,559,1
614724,560,1
614728,557,1
614732,556,1
614736,553,1
614740,552,1
614744,552,1
614748,547,1
614752,544,1
614756,542,1
614760,541,1
614764,541,1
614768,538,1
614772,537,1
614776,536,1
614780,536,1
614784,538,1
614788,538,1
614792,537,1
614796,538,1
614800,537,1
614804,533,1
614808,523,1
614812,508,1
614816,494,1
614820,466,1
614824,435,1
614828,417,1
614832,442,1
614836,509,1
614840,619,1
614844,752,1
614848,809,1
614852,736,1
614856,604,1
614860,533,1
614864,556,1
614868,621,1
614872,665,1
614876,665,1
614880,639,1
614884,590,1
614888,547,1
614892,523,1
614896,514,1
614900,512,1
614904,510,1
614908,510,1
614912,509,1
614916,509,1
614920,509,1
614924,511,1
614928,511,1
614932,511,1
614936,513,1
614940,513,1
614944,513,1
614948,509,1
614952,509,1
614956,509,1
614960,513,1
614964,514,1
614968,516,1
614972,516,1
614976,518,1
614980,519,1
614984,521,1
614988,519,1
614992,519,1
614996,520,1
615000,523,1
615004,525,1
615008,526,1
615012,526,1
615016,526,1
615020,531,1
615024,534,1
615028,535,1
615032,540,1
615036,543,1
615040,548,1
615044,553,1
615048,555,1
615052,560,1
615056,565,1
615060,570,1
615064,576,1
615068,578,1
615072,580,1
615076,583,1
615080,588,1
615084,591,1
615088,594,1
615092,595,1
615096,594,1
615100,594,1
615104,594,1
615109,592,1
615113,588,1
615117,585,1
615121,580,1
615125,576,1
615129,567,1
615133,555,1
615137,547,1
615141,543,1
615145,538,1
615149,534,1
615153,529,1
615157,525,1
615161,519,1
615165,516,1
615169,512,1
615173,508,1
615177,508,1
615181,508,1
615185,507,1
615189,507,1
615193,507,1
615197,509,1
615201,509,1
615205,508,1
615209,506,1
615213,505,1
615217,506,1
615221,508,1
615225,508,1
615229,505,1
615233,505,1
615237,506,1
615241,507,1
615245,507,1
615249,508,1
615253,508,1
615257,508,1
615261,508,1
615265,509,1
615269,509,1
615273,509,1
615277,513,1
615281,513,1
615285,513,1
615289,512,1
615293,512,1
615297,514,1
615301,517,1
615305,519,1
615309,519,1
615313,520,1
615317,519,1
615321,521,1
615325,523,1
615329,522,1
615333,522,1
615337,522,1
615341,523,1
615345,524,1
615349,525,1
615353,525,1
615357,526,1
615361,526,1
615365,528,1
615369,526,1
615373,526,1
615377,526,1
615381,528,1
615385,529,1
615389,531,1
615393,532,1
615397,532,1
615401,532,1
615405,533,1
615409,534,1
615413,535,1
615417,536,1
615421,537,1
615425,536,1
615429,535,1
615433,534,1
615437,536,1
615441,538,1
615445,538,1
615449,538,1
615453,536,1
615457,536,1
615461,536,1
615465,536,1
615469,536,1
615473,535,1
615477,536,1
615481,537,1
615485,540,1
615489,541,1
615493,540,1
615497,540,1
615501,538,1
615505,541,1
615509,541,1
615513,540,1
615517,538,1
615521,541,1
615525,546,1
615529,550,1
615533,555,1
615537,561,1
615541,567,1
615545,567,1
615549,566,1
615553,561,1
615557,557,1
615561,554,1
615565,553,1
615569,547,1
615573,544,1
615577,543,1
615581,543,1
615585,545,1
615589,545,1
615593,543,1
615597,543,1
615601,543,1
615605,543,1
615609,542,1
615613,541,1
615617,538,1
615621,538,1
615625,533,1
615629,521,1
615633,508,1
615637,492,1
615641,461,1
615645,436,1
615649,430,1
615653,462,1
615657,541,1
615661,666,1
615665,799,1
615669,819,1
615673,715,1
615677,576,1
615681,501,1
615685,519,1
615689,590,1
615693,645,1
615697,657,1
615701,642,1
615705,601,1
615709,558,1
615713,534,1
615717,525,1
615721,522,1
615725,521,1
615729,519,1
615733,519,1
615737,521,1
615741,521,1
615745,522,1
615749,521,1
615753,521,1
615757,522,1
615761,523,1
615765,523,1
615769,523,1
615773,522,1
615777,523,1
615781,523,1
615785,525,1
615789,525,1
615793,523,1
615797,525,1
615801,529,1
615805,532,1
615809,532,1
615813,531,1
615817,532,1
615821,534,1
615825,535,1
615829,537,1
615833,538,1
615837,538,1
615841,541,1
615845,544,1
615849,546,1
615853,549,1
615857,552,1
615861,555,1
615865,560,1
615869,562,1
615873,568,1
615877,572,1
615881,579,1
615885,584,1
615889,586,1
615893,589,1
615897,594,1
615901,596,1
615905,600,1
615909,600,1
615913,600,1
615917,601,1
615921,602,1
615925,601,1
615929,597,1
615933,591,1
615937,585,1
615941,579,1
615945,572,1
615949,566,1
615953,556,1
615957,549,1
615961,543,1
615965,535,1
615969,528,1
615973,523,1
615977,522,1
615981,520,1
615985,518,1
615989,516,1
615993,513,1
615997,512,1
616001,513,1
616005,513,1
616009,513,1
616013,510,1
616017,509,1
616021,510,1
616025,509,1
616029,508,1
616033,507,1
616037,508,1
616041,509,1
616045,512,1
616049,509,1
616053,508,1
616057,508,1
616061,509,1
616065,512,1
616069,511,1
616073,509,1
616077,509,1
616081,513,1
616085,514,1
616089,514,1
616093,514,1
616097,514,1
616101,516,1
616105,517,1
616109,516,1
616113,517,1
616117,518,1
616121,519,1
616125,519,1
616129,520,1
616133,519,1
616137,522,1
616141,523,1
616145,525,1
616149,526,1
616153,526,1
616157,526,1
616161,528,1
616165,528,1
616169,528,1
616173,528,1
616177,529,1
616181,529,1
616185,531,1
616189,532,1
616193,531,1
616197,529,1
616201,529,1
616205,532,1
616209,532,1
616213,531,1
616217,532,1
616221,533,1
616225,533,1
616229,534,1
616233,533,1
616237,533,1
616241,534,1
616245,536,1
616249,536,1
616253,535,1
616257,535,1
616261,538,1
616265,540,1
616269,538,1
616273,538,1
616277,538,1
616281,538,1
616285,540,1
616289,541,1
616293,541,1
616297,541,1
616301,541,1
616305,541,1
616309,540,1
616313,538,1
616317,536,1
616321,536,1
616325,538,1
616329,541,1
616333,541,1
616337,541,1
616341,541,1
616345,541,1
616349,541,1
616353,538,1
616357,536,1
616361,536,1
616365,538,1
616369,538,1
616373,537,1
616377,536,1
616381,535,1
616385,536,1
616389,541,1
616393,542,1
616397,545,1
616401,552,1
616405,556,1
616409,558,1
616413,555,1
616417,553,1
616421,554,1
616425,552,1
616429,547,1
616433,543,1
616437,542,1
616441,541,1
616445,542,1
616449,541,1
616453,538,1
616457,538,1
616461,537,1
616465,536,1
616469,536,1
616473,535,1
616477,534,1
616481,535,1
616485,535,1
616489,531,1
616493,519,1
616497,506,1
616501,489,1
616505,460,1
616509,428,1
616513,414,1
616517,441,1
616521,508,1
616525,617,1
616529,747,1
616533,802,1
616537,729,1
616541,601,1
616545,534,1
616549,561,1
616553,624,1
616557,665,1
616561,665,1
616565,637,1
616569,585,1
616573,543,1
616578,522,1
616582,514,1
616586,513,1
616590,512,1
616594,509,1
616598,510,1
616602,512,1
616606,513,1
616610,514,1
616614,513,1
616618,513,1
616622,513,1
616626,514,1
616630,516,1
616634,516,1
616638,517,1
616642,518,1
616646,519,1
616650,519,1
616654,519,1
616658,519,1
616662,519,1
616666,521,1
616670,521,1
616674,521,1
616678,522,1
616682,524,1
616686,528,1
616690,530,1
616694,532,1
616698,533,1
616702,534,1
616706,535,1
616710,535,1
616714,537,1
616718,542,1
616722,545,1
616726,549,1
616730,552,1
616734,554,1
616738,556,1
616742,562,1
616746,569,1
616750,573,1
616754,577,1
616758,580,1
616762,585,1
616766,588,1
616770,590,1
616774,592,1
616778,594,1
616782,595,1
616786,595,1
616790,595,1
616794,590,1
616798,586,1
616802,581,1
616806,577,1
616810,570,1
616814,562,1
616818,555,1
616822,549,1
616826,543,1
616830,536,1
616834,529,1
616838,523,1
616842,519,1
616846,517,1
616850,514,1
616854,512,1
616858,509,1
616862,509,1
616866,510,1
616870,509,1
616874,508,1
616878,508,1
616882,508,1
616886,508,1
616890,507,1
616894,506,1
616898,507,1
616902,507,1
616906,508,1
616910,506,1
616914,505,1
616918,505,1
616922,507,1
616926,508,1
616930,508,1
616934,508,1
616938,509,1
616942,512,1
616946,513,1
616950,509,1
616954,507,1
616958,507,1
616962,507,1
616966,509,1
616970,513,1
616974,514,1
616978,516,1
616982,518,1
616986,518,1
616990,518,1
616994,518,1
616998,518,1
617002,518,1
617006,519,1
617010,518,1
617014,518,1
617018,519,1
617022,522,1
617026,522,1
617030,523,1
617034,522,1
617038,523,1
617042,526,1
617046,532,1
617050,533,1
617054,533,1
617058,533,1
617062,532,1
617066,532,1
617070,532,1
617074,532,1
617078,533,1
617082,533,1
617086,535,1
617090,535,1
617094,535,1
617098,535,1
617102,536,1
617106,538,1
617110,540,1
617114,538,1
617118,536,1
617122,536,1
617126,537,1
617130,538,1
617134,538,1
617138,540,1
617142,541,1
617146,542,1
617150,542,1
617154,540,1
617158,537,1
617162,536,1
617166,536,1
617170,536,1
617174,538,1
617178,538,1
617182,541,1
617186,541,1
617190,540,1
617194,541,1
617198,542,1
617202,543,1
617206,542,1
617210,542,1
617214,541,1
617218,541,1
617222,541,1
617226,541,1
617230,538,1
617234,538,1
617238,538,1
617242,543,1
617246,546,1
617250,546,1
617254,543,1
617258,545,1
617262,552,1
617266,558,1
617270,561,1
617274,561,1
617278,561,1
617282,559,1
617286,555,1
617290,552,1
617294,547,1
617298,545,1
617302,543,1
617306,543,1
617310,544,1
617314,543,1
617318,544,1
617322,544,1
617326,543,1
617330,542,1
617334,541,1
617338,538,1
617342,537,1
617346,541,1
617350,535,1
617354,525,1
617358,509,1
617362,490,1
617366,460,1
617370,434,1
617374,433,1
617378,469,1
617382,555,1
617386,685,1
617390,806,1
617394,807,1
617398,691,1
617402,566,1
617406,506,1
617410,538,1
617414,613,1
617418,661,1
617422,665,1
617426,641,1
617430,591,1
617434,547,1
617438,528,1
617442,521,1
617446,518,1
617450,518,1
617454,517,1
617458,517,1
617462,518,1
617466,519,1
617470,518,1
617474,517,1
617478,517,1
617482,518,1
617486,521,1
617490,522,1
617494,521,1
617498,519,1
617502,519,1
617506,519,1
617510,521,1
617514,521,1
617518,522,1
617522,525,1
617526,526,1
617530,528,1
617534,528,1
617538,528,1
617542,528,1
617546,531,1
617550,533,1
617554,535,1
617558,536,1
617562,537,1
617566,541,1
617570,543,1
617574,544,1
617578,546,1
617582,552,1
617586,556,1
617590,561,1
617594,564,1
617598,566,1
617602,569,1
617606,573,1
617610,578,1
617614,582,1
617618,586,1
617622,589,1
617626,594,1
617630,597,1
617634,597,1
617638,596,1
617642,598,1
617646,598,1
617650,598,1
617654,595,1
617658,590,1
617662,586,1
617666,581,1
617670,576,1
617674,567,1
617678,557,1
617682,552,1
617686,545,1
617690,541,1
617694,533,1
617698,528,1
617702,525,1
617706,523,1
617710,522,1
617714,519,1
617718,517,1
617722,517,1
617726,517,1
617730,517,1
617734,514,1
617738,513,1
617742,512,1
617746,509,1
617750,509,1
617754,509,1
617758,509,1
617762,509,1
617766,512,1
617770,512,1
617774,509,1
617778,508,1
617782,509,1
617786,511,1
617790,512,1
617794,510,1
617798,511,1
617802,512,1
617806,512,1
617810,512,1
617814,512,1
617818,513,1
617822,514,1
617826,516,1
617830,518,1
617834,518,1
617838,519,1
617842,522,1
617846,525,1
617850,526,1
617854,523,1
617858,523,1
617862,524,1
617866,526,1
617870,528,1
617874,526,1
617878,526,1
617882,528,1
617886,530,1
617890,531,1
617894,532,1
617898,533,1
617902,534,1
617906,534,1
617910,532,1
617914,530,1
617918,531,1
617922,533,1
617926,534,1
617930,535,1
617934,535,1
617938,535,1
617942,534,1
617946,535,1
617950,535,1
617954,535,1
617958,534,1
617962,534,1
617966,536,1
617970,538,1
617974,538,1
617978,536,1
617982,536,1
617986,536,1
617990,537,1
617994,536,1
617998,536,1
618002,536,1
618006,536,1
618010,538,1
618014,536,1
618018,535,1
618022,535,1
618026,536,1
618030,538,1
618035,536,1
618039,536,1
618043,541,1
618047,545,1
618051,550,1
618055,553,1
618059,556,1
618063,560,1
618067,560,1
618071,560,1
618075,556,1
618079,553,1
618083,549,1
618087,547,1
618091,545,1
618095,541,1
618099,536,1
618103,536,1
618107,537,1
618111,540,1
618115,538,1
618119,536,1
618123,535,1
618127,536,1
618131,538,1
618135,536,1
618139,536,1
618143,534,1
618147,526,1
618151,516,1
618155,500,1
618159,475,1
618163,441,1
618167,422,1
618171,435,1
618175,486,1
618179,585,1
618183,722,1
618187,812,1
618191,775,1
618195,639,1
618199,529,1
618203,505,1
618207,556,1
618211,622,1
618215,648,1
618219,641,1
618223,608,1
618227,566,1
618231,535,1
618235,521,1
618239,514,1
618243,513,1
618247,512,1
618251,513,1
618255,513,1
618259,513,1
618263,513,1
618267,516,1
618271,517,1
618275,517,1
618279,517,1
618283,517,1
618287,517,1
618291,517,1
618295,517,1
618299,516,1
618303,516,1
618307,517,1
618311,519,1
618315,520,1
618319,519,1
618323,521,1
618327,521,1
618331,522,1
618335,522,1
618339,523,1
618343,526,1
618347,529,1
618351,533,1
618355,534,1
618359,534,1
618363,535,1
618367,538,1
618371,543,1
618375,545,1
618379,546,1
618383,550,1
618387,556,1
618391,561,1
618395,564,1
618399,568,1
618403,574,1
618407,580,1
618411,585,1
618415,588,1
618419,590,1
618423,590,1
618427,592,1
618431,595,1
618435,597,1
618439,598,1
618443,600,1
618447,598,1
618451,595,1
618455,588,1
618459,579,1
618463,570,1
618467,564,1
618471,555,1
618475,546,1
618479,540,1
618483,533,1
618487,528,1
618491,525,1
618495,519,1
618499,514,1
618503,513,1
618507,512,1
618511,512,1
618515,508,1
618519,507,1
618523,506,1
618527,507,1
618531,509,1
618535,508,1
618539,506,1
618543,504,1
618547,504,1
618551,505,1
618555,505,1
618559,504,1
618563,504,1
618567,505,1
618571,506,1
618575,505,1
618579,504,1
618583,504,1
618587,505,1
618591,506,1
618595,505,1
618599,504,1
618603,504,1
618607,505,1
618611,507,1
618615,507,1
618619,507,1
618623,508,1
618627,509,1
618631,513,1
618635,513,1
618639,512,1
618643,513,1
618647,514,1
618651,518,1
618655,518,1
618659,519,1
618663,521,1
618667,522,1
618671,522,1
618675,523,1
618679,522,1
618683,523,1
618687,525,1
618691,529,1
618695,529,1
618699,526,1
618703,526,1
618707,528,1
618711,529,1
618715,529,1
618719,528,1
618723,529,1
618727,532,1
618731,534,1
618735,533,1
618739,532,1
618743,531,1
618747,532,1
618751,533,1
618755,532,1
618759,531,1
618763,531,1
618767,532,1
618771,534,1
618775,535,1
618779,534,1
618783,535,1
618787,536,1
618791,537,1
618795,536,1
618799,536,1
618803,536,1
618807,538,1
618811,540,1
618815,538,1
618819,536,1
618823,535,1
618827,536,1
618831,540,1
618835,540,1
618839,538,1
618843,538,1
618847,541,1
618851,541,1
618855,537,1
618859,538,1
618863,541,1
618867,540,1
618871,540,1
618875,542,1
618879,544,1
618883,547,1
618887,553,1
618891,559,1
618895,562,1
618899,560,1
618903,560,1
618907,559,1
618911,558,1
618915,555,1
618919,552,1
618923,549,1
618927,545,1
618931,543,1
618935,543,1
618939,543,1
618943,544,1
618947,543,1
618951,543,1
618955,542,1
618959,541,1
618963,541,1
618967,542,1
618971,542,1
618975,541,1
618979,534,1
618983,522,1
618987,508,1
618991,489,1
618995,459,1
618999,428,1
619003,423,1
619007,457,1
619011,535,1
619015,649,1
619019,775,1
619023,805,1
619027,708,1
619031,582,1
619035,530,1
619039,567,1
619043,629,1
619047,665,1
619051,658,1
619055,626,1
619059,574,1
619063,538,1
619067,522,1
619071,519,1
619075,518,1
619079,517,1
619083,516,1
619087,514,1
619091,516,1
619095,516,1
619099,514,1
619103,514,1
619107,517,1
619111,517,1
619115,517,1
619119,513,1
619123,512,1
619127,512,1
619131,514,1
619135,516,1
619139,517,1
619143,518,1
619147,519,1
619151,521,1
619155,522,1
619159,522,1
619163,522,1
619167,523,1
619171,526,1
619175,529,1
619179,530,1
619183,532,1
619187,535,1
619191,536,1
619195,537,1
619199,538,1
619203,541,1
619207,545,1
619211,549,1
619215,553,1
619219,555,1
619223,558,1
619227,562,1
619231,566,1
619235,568,1
619239,571,1
619243,577,1
619247,582,1
619251,588,1
619255,591,1
619259,592,1
619263,594,1
619267,596,1
619271,600,1
619275,600,1
619279,596,1
619283,592,1
619287,589,1
619291,585,1
619295,579,1
619299,569,1
619303,561,1
619307,555,1
619311,548,1
619315,542,1
619319,534,1
619323,526,1
619327,522,1
619331,519,1
619335,517,1
619339,513,1
619343,509,1
619347,509,1
619351,512,1
619355,513,1
619359,511,1
619363,509,1
619367,513,1
619371,513,1
619375,512,1
619379,508,1
619383,506,1
619387,507,1
619391,508,1
619395,510,1
619399,512,1
619403,513,1
619407,513,1
619411,513,1
619415,512,1
619419,509,1
619423,512,1
619427,513,1
619431,516,1
619435,516,1
619439,514,1
619443,513,1
619447,514,1
619451,518,1
619455,518,1
619459,517,1
619463,517,1
619467,518,1
619471,521,1
619475,523,1
619479,521,1
619483,521,1
619487,521,1
619491,523,1
619495,525,1
619500,525,1
619504,525,1
619508,526,1
619512,529,1
619516,530,1
619520,528,1
619524,528,1
619528,529,1
619532,531,1
619536,532,1
619540,531,1
619544,529,1
619548,531,1
619552,533,1
619556,534,1
619560,533,1
619564,533,1
619568,535,1
619572,536,1
619576,536,1
619580,535,1
619584,535,1
619588,536,1
619592,540,1
619596,540,1
619600,536,1
619604,534,1
619608,534,1
619612,536,1
619616,538,1
619620,538,1
619624,536,1
619628,536,1
619632,538,1
619636,538,1
619640,536,1
619644,538,1
619648,541,1
619652,541,1
619656,538,1
619660,535,1
619664,535,1
619668,536,1
619672,540,1
619676,538,1
619680,536,1
619684,540,1
619688,543,1
619692,546,1
619696,552,1
619700,556,1
619704,561,1
619708,561,1
619712,561,1
619716,560,1
619720,555,1
619724,549,1
619728,546,1
619732,545,1
619736,543,1
619740,541,1
619744,538,1
619748,541,1
619752,541,1
619756,541,1
619760,538,1
619764,535,1
619768,535,1
619772,536,1
619776,538,1
619780,535,1
619784,533,1
619788,526,1
619792,517,1
619796,504,1
619800,481,1
619804,448,1
619808,427,1
619812,436,1
619816,481,1
619820,572,1
619824,710,1
619828,817,1
619832,798,1
619836,669,1
619840,543,1
619844,487,1
619848,521,1
619852,596,1
619856,645,1
619860,652,1
619864,629,1
619868,585,1
619872,546,1
619876,526,1
619880,517,1
619884,514,1
619888,513,1
619892,514,1
619896,516,1
619900,514,1
619904,514,1
619908,514,1
619912,516,1
619916,517,1
619920,516,1
619924,514,1
619928,516,1
619932,516,1
619936,516,1
619940,514,1
619944,514,1
619948,514,1
619952,517,1
619956,518,1
619960,518,1
619964,518,1
619968,519,1
619972,523,1
619976,526,1
619980,526,1
619984,526,1
619988,529,1
619992,532,1
619996,534,1
620000,534,1
620004,535,1
620008,538,1
620012,543,1
620016,547,1
620020,549,1
620024,553,1
620028,557,1
620032,562,1
620036,568,1
620040,570,1
620044,576,1
620048,579,1
620052,582,1
620056,588,1
620060,590,1
620064,592,1
620068,594,1
620072,596,1
620076,598,1
620080,598,1
620084,596,1
620088,595,1
620092,592,1
620096,588,1
620100,581,1
620104,573,1
620108,566,1
620112,560,1
620116,553,1
620120,544,1
620124,536,1
620128,532,1
620132,526,1
620136,523,1
620140,519,1
620144,516,1
620148,514,1
620152,513,1
620156,512,1
620160,509,1
620164,508,1
620168,508,1
620172,509,1
620176,509,1
620180,508,1
620184,507,1
620188,507,1
620192,507,1
620196,507,1
620200,506,1
620204,506,1
620208,507,1
620212,507,1
620216,509,1
620220,508,1
620224,507,1
620228,506,1
620232,506,1
620236,508,1
620240,508,1
620244,509,1
620248,509,1
620252,512,1
620256,513,1
620260,516,1
620264,516,1
620268,517,1
620272,518,1
620276,518,1
620280,517,1
620284,518,1
620288,520,1
620292,522,1
620296,523,1
620300,522,1
620304,521,1
620308,522,1
620312,523,1
620316,525,1
620320,525,1
620324,526,1
620328,528,1
620332,529,1
620336,529,1
620340,529,1
620344,528,1
620348,528,1
620352,531,1
620356,532,1
620360,532,1
620364,531,1
620368,532,1
620372,533,1
620376,533,1
620380,532,1
620384,532,1
620388,533,1
620392,535,1
620396,536,1
620400,535,1
620404,534,1
620408,534,1
620412,535,1
620416,536,1
620420,535,1
620424,534,1
620428,535,1
620432,536,1
620436,538,1
620440,538,1
620444,537,1
620448,538,1
620452,538,1
620456,538,1
620460,536,1
620464,536,1
620468,537,1
620472,540,1
620476,541,1
620480,542,1
620484,541,1
620488,540,1
620492,542,1
620496,547,1
620500,553,1
620504,554,1
620508,559,1
620512,564,1
620516,564,1
620520,561,1
620524,559,1
620528,557,1
620532,555,1
620536,553,1
620540,547,1
620544,543,1
620548,541,1
620552,538,1
620556,540,1
620560,538,1
620564,536,1
620568,536,1
620572,536,1
620576,538,1
620580,537,1
620584,535,1
620588,535,1
620592,536,1
620596,533,1
620600,523,1
620604,512,1
620608,495,1
620612,466,1
620616,434,1
620620,417,1
620624,442,1
620628,509,1
620632,620,1
620636,756,1
620640,813,1
620644,740,1
620648,602,1
620652,521,1
620656,532,1
620660,594,1
620664,645,1
620668,653,1
620672,636,1
620676,593,1
620680,552,1
620684,525,1
620688,516,1
620692,513,1
620696,512,1
620700,512,1
620704,513,1
620708,512,1
620712,512,1
620716,513,1
620720,513,1
620724,513,1
620728,514,1
620732,517,1
620736,519,1
620740,518,1
620744,516,1
620748,516,1
620752,517,1
620756,519,1
620760,518,1
620764,518,1
620768,518,1
620772,519,1
620776,521,1
620780,522,1
620784,523,1
620788,525,1
620792,526,1
620796,528,1
620800,528,1
620804,530,1
620808,533,1
620812,537,1
620816,542,1
620820,544,1
620824,546,1
620828,549,1
620832,553,1
620836,557,1
620840,562,1
620844,566,1
620848,570,1
620852,576,1
620856,581,1
620860,585,1
620864,588,1
620868,591,1
620872,595,1
620876,598,1
620880,600,1
620884,600,1
620888,601,1
620892,601,1
620896,601,1
620900,598,1
620904,592,1
620908,588,1
620912,581,1
620916,574,1
620920,567,1
620924,558,1
620929,552,1
620933,545,1
620937,541,1
620941,534,1
620945,526,1
620949,521,1
620953,518,1
620957,518,1
620961,516,1
620965,514,1
620969,513,1
620973,512,1
620977,512,1
620981,511,1
620985,508,1
620989,508,1
620993,509,1
620997,509,1
621001,509,1
621005,508,1
621009,508,1
621013,507,1
621017,507,1
621021,506,1
621025,505,1
621029,505,1
621033,507,1
621037,509,1
621041,508,1
621045,507,1
621049,507,1
621053,508,1
621057,512,1
621061,512,1
621065,509,1
621069,512,1
621073,514,1
621077,516,1
621081,517,1
621085,516,1
621089,516,1
621093,517,1
621097,518,1
621101,517,1
621105,517,1
621109,518,1
621113,519,1
621117,521,1
621121,521,1
621125,521,1
621129,522,1
621133,523,1
621137,525,1
621141,524,1
621145,525,1
621149,528,1
621153,529,1
621157,531,1
621161,528,1
621165,528,1
621169,528,1
621173,529,1
621177,531,1
621181,532,1
621185,532,1
621189,533,1
621193,534,1
621197,535,1
621201,534,1
621205,533,1
621209,532,1
621213,533,1
621217,535,1
621221,536,1
621225,535,1
621229,535,1
621233,535,1
621237,536,1
621241,537,1
621245,536,1
621249,536,1
621253,538,1
621257,542,1
621261,542,1
621265,541,1
621269,540,1
621273,538,1
621277,540,1
621281,541,1
621285,540,1
621289,537,1
621293,536,1
621297,536,1
621301,537,1
621305,536,1
621309,537,1
621313,538,1
621317,538,1
621321,541,1
621325,541,1
621329,538,1
621333,537,1
621337,536,1
621341,536,1
621345,536,1
621349,536,1
621353,538,1
621357,541,1
621361,541,1
621365,541,1
621369,538,1
621373,536,1
621377,541,1
621381,543,1
621385,545,1
621389,547,1
621393,554,1
621397,560,1
621401,560,1
621405,556,1
621409,555,1
621413,554,1
621417,552,1
621421,549,1
621425,544,1
621429,543,1
621433,542,1
621437,542,1
621441,541,1
621445,538,1
621449,538,1
621453,538,1
621457,540,1
621461,540,1
621465,538,1
621469,538,1
621473,540,1
621477,538,1
621481,532,1
621485,519,1
621489,505,1
621493,485,1
621497,451,1
621501,426,1
621505,426,1
621509,465,1
621513,553,1
621517,678,1
621521,796,1
621525,795,1
621529,678,1
621533,566,1
621537,531,1
621541,581,1
621545,643,1
621549,672,1
621553,661,1
621557,622,1
621561,572,1
621565,535,1
621569,521,1
621573,517,1
621577,517,1
621581,517,1
621585,516,1
621589,516,1
621593,514,1
621597,516,1
621601,516,1
621605,516,1
621609,514,1
621613,516,1
621617,517,1
621621,516,1
621625,514,1
621629,514,1
621633,517,1
621637,519,1
621641,518,1
621645,517,1
621649,518,1
621653,519,1
621657,519,1
621661,521,1
621665,522,1
621669,525,1
621673,528,1
621677,531,1
621681,532,1
621685,530,1
621689,531,1
621693,532,1
621697,535,1
621701,538,1
621705,541,1
621709,544,1
621713,547,1
621717,554,1
621721,558,1
621725,561,1
621729,564,1
621733,568,1
621737,573,1
621741,578,1
621745,578,1
621749,581,1
621753,584,1
621757,588,1
621761,590,1
621765,592,1
621769,592,1
621773,593,1
621777,595,1
621781,595,1
621785,592,1
621789,588,1
621793,583,1
621797,577,1
621801,568,1
621805,559,1
621809,552,1
621813,545,1
621817,542,1
621821,538,1
621825,533,1
621829,526,1
621833,522,1
621837,518,1
621841,514,1
621845,512,1
621849,512,1
621853,512,1
621857,513,1
621861,513,1
621865,511,1
621869,512,1
621873,513,1
621877,514,1
621881,513,1
621885,509,1
621889,507,1
621893,507,1
621897,508,1
621901,511,1
621905,509,1
621909,508,1
621913,509,1
621917,512,1
621921,514,1
621925,513,1
621929,512,1
621933,512,1
621937,513,1
621941,513,1
621945,513,1
621949,513,1
621953,513,1
621957,514,1
621961,514,1
621965,514,1
621969,517,1
621973,519,1
621977,522,1
621981,523,1
621985,521,1
621989,521,1
621993,522,1
621997,523,1
622001,524,1
622005,524,1
622009,524,1
622013,525,1
622017,526,1
622021,526,1
622025,524,1
622029,525,1
622033,528,1
622037,530,1
622041,531,1
622045,529,1
622049,528,1
622053,528,1
622057,531,1
622061,533,1
622065,532,1
622069,532,1
622073,533,1
622077,535,1
622081,535,1
622085,535,1
622089,534,1
622093,534,1
622097,535,1
622101,536,1
622105,536,1
622109,536,1
622113,538,1
622117,541,1
622121,542,1
622125,542,1
622129,542,1
622133,542,1
622137,542,1
622141,542,1
622145,541,1
622149,541,1
622153,542,1
622157,544,1
622161,544,1
622165,543,1
622169,543,1
622173,543,1
622177,545,1
622181,545,1
622185,542,1
622189,542,1
622193,542,1
622197,543,1
622201,543,1
622205,543,1
622209,543,1
622213,543,1
622217,543,1
622221,545,1
622225,545,1
622229,544,1
622233,547,1
622237,555,1
622241,564,1
622245,566,1
622249,561,1
622253,560,1
622257,557,1
622261,554,1
622265,549,1
622269,547,1
622273,545,1
622277,544,1
622281,542,1
622285,542,1
622290,540,1
622294,537,1
622298,537,1
622302,538,1
622306,537,1
622310,536,1
622314,537,1
622318,540,1
622322,538,1
622326,533,1
622330,521,1
622334,508,1
622338,497,1
622342,471,1
622346,441,1
622350,428,1
622354,449,1
622358,513,1
622362,624,1
622366,761,1
622370,822,1
622374,756,1
622378,610,1
622382,513,1
622386,499,1
622390,560,1
622394,627,1
622398,652,1
622402,645,1
622406,609,1
622410,566,1
622414,535,1
622418,522,1
622422,518,1
622426,514,1
622430,513,1
622434,514,1
622438,516,1
622442,517,1
622446,516,1
622450,513,1
622454,513,1
622458,516,1
622462,516,1
622466,514,1
622470,514,1
622474,516,1
622478,518,1
622482,518,1
622486,517,1
622490,516,1
622494,516,1
622498,518,1
622502,519,1
622506,519,1
622510,520,1
622514,522,1
622518,525,1
622522,526,1
622526,528,1
622530,526,1
622534,528,1
622538,531,1
622542,535,1
622546,538,1
622550,542,1
622554,545,1
622558,549,1
622562,553,1
622566,555,1
622570,560,1
622574,564,1
622578,569,1
622582,573,1
622586,577,1
622590,580,1
622594,583,1
622598,586,1
622602,590,1
622606,592,1
622610,594,1
622614,596,1
622618,600,1
622622,601,1
622626,597,1
622630,592,1
622634,589,1
622638,585,1
622642,579,1
622646,570,1
622650,561,1
622654,555,1
622658,549,1
622662,544,1
622666,535,1
622670,526,1
622674,521,1
622678,518,1
622682,517,1
622686,514,1
622690,513,1
622694,513,1
622698,513,1
622702,512,1
622706,509,1
622710,508,1
622714,507,1
622718,507,1
622722,507,1
622726,506,1
622730,506,1
622734,507,1
622738,508,1
622742,508,1
622746,506,1
622750,504,1
622754,505,1
622758,506,1
622762,507,1
622766,506,1
622770,506,1
622774,507,1
622778,507,1
622782,509,1
622786,509,1
622790,508,1
622794,511,1
622798,513,1
622802,514,1
622806,514,1
622810,514,1
622814,516,1
622818,517,1
622822,519,1
622826,519,1
622830,519,1
622834,521,1
622838,523,1
622842,523,1
622846,521,1
622850,519,1
622854,521,1
622858,524,1
622862,528,1
622866,528,1
622870,526,1
622874,526,1
622878,528,1
622882,531,1
622886,529,1
622890,529,1
622894,531,1
622898,532,1
622902,533,1
622906,533,1
622910,531,1
622914,531,1
622918,533,1
622922,534,1
622926,533,1
622930,530,1
622934,531,1
622938,532,1
622942,533,1
622946,533,1
622950,532,1
622954,533,1
622958,536,1
622962,538,1
622966,536,1
622970,535,1
622974,533,1
622978,533,1
622982,535,1
622986,535,1
622990,535,1
622994,534,1
622998,533,1
623002,534,1
623006,534,1
623010,535,1
623014,537,1
623018,538,1
623022,538,1
623026,536,1
623030,534,1
623034,534,1
623038,537,1
623042,541,1
623046,540,1
623050,537,1
623054,536,1
623058,538,1
623062,541,1
623066,541,1
623070,538,1
623074,538,1
623078,541,1
623082,543,1
623086,542,1
623090,538,1
623094,538,1
623098,538,1
623102,542,1
623106,543,1
623110,541,1
623114,543,1
623118,547,1
623122,554,1
623126,556,1
623130,556,1
623134,556,1
623138,556,1
623142,555,1
623146,550,1
623150,546,1
623154,544,1
623158,543,1
623162,543,1
623166,542,1
623170,542,1
623174,541,1
623178,542,1
623182,542,1
623186,542,1
623190,541,1
623194,541,1
623198,541,1
623202,541,1
623206,538,1
623210,532,1
623214,521,1
623218,507,1
623222,490,1
623226,460,1
623230,428,1
623234,426,1
623238,461,1
623242,541,1
623246,655,1
623250,780,1
623254,805,1
623258,706,1
623262,583,1
623266,535,1
623270,577,1
623274,639,1
623278,670,1
623282,663,1
623286,628,1
623290,578,1
623294,542,1
623298,523,1
623302,518,1
623306,516,1
623310,514,1
623314,517,1
623318,519,1
623322,519,1
623326,519,1
623330,517,1
623334,517,1
623338,517,1
623342,518,1
623346,518,1
623350,517,1
623354,518,1
623358,519,1
623362,522,1
623366,523,1
623370,522,1
623374,522,1
623378,522,1
623382,522,1
623386,523,1
623390,523,1
623394,524,1
623398,526,1
623402,528,1
623406,528,1
623410,528,1
623414,529,1
623418,533,1
623422,536,1
623426,538,1
623430,540,1
623434,542,1
623438,545,1
623442,552,1
623446,555,1
623450,555,1
623454,559,1
623458,562,1
623462,569,1
623466,574,1
623470,577,1
623474,581,1
623478,586,1
623482,592,1
623486,595,1
623490,596,1
623494,598,1
623498,600,1
623502,603,1
623506,601,1
623510,596,1
623514,594,1
623518,591,1
623522,589,1
623526,584,1
623530,577,1
623534,568,1
623538,560,1
623542,554,1
623546,545,1
623550,536,1
623554,531,1
623558,525,1
623562,522,1
623566,519,1
623570,517,1
623574,516,1
623578,514,1
623582,516,1
623586,513,1
623590,509,1
623594,509,1
623598,509,1
623602,512,1
623606,512,1
623610,511,1
623614,509,1
623618,511,1
623622,513,1
623626,511,1
623630,508,1
623634,507,1
623638,508,1
623642,510,1
623647,509,1
623651,508,1
623655,509,1
623659,512,1
623663,513,1
623667,513,1
623671,512,1
623675,511,1
623679,512,1
623683,514,1
623687,516,1
623691,516,1
623695,517,1
623699,518,1
623703,519,1
623707,519,1
623711,518,1
623715,519,1
623719,521,1
623723,522,1
623727,523,1
623731,522,1
623735,522,1
623739,523,1
623743,524,1
623747,525,1
623751,525,1
623755,528,1
623759,530,1
623763,532,1
623767,531,1
623771,528,1
623775,529,1
623779,531,1
623783,532,1
623787,533,1
623791,532,1
623795,533,1
623799,534,1
623803,535,1
623807,535,1
623811,534,1
623815,534,1
623819,534,1
623823,535,1
623827,536,1
623831,536,1
623835,536,1
623839,535,1
623843,536,1
623847,536,1
623851,536,1
623855,538,1
623859,540,1
623863,540,1
623867,538,1
623871,538,1
623875,538,1
623879,540,1
623883,541,1
623887,542,1
623891,541,1
623895,541,1
623899,541,1
623903,543,1
623907,544,1
623911,543,1
623915,542,1
623919,542,1
623923,542,1
623927,542,1
623931,541,1
623935,541,1
623939,541,1
623943,542,1
623947,542,1
623951,542,1
623955,541,1
623959,540,1
623963,538,1
623967,538,1
623971,540,1
623975,541,1
623979,542,1
623983,542,1
623987,542,1
623991,542,1
623995,543,1
623999,545,1
624003,545,1
624007,545,1
624011,547,1
624015,552,1
624019,556,1
624023,559,1
624027,561,1
624031,560,1
624035,556,1
624039,554,1
624043,553,1
624047,549,1
624051,545,1
624055,543,1
624059,541,1
624063,542,1
624067,542,1
624071,541,1
624075,538,1
624079,538,1
624083,540,1
624087,540,1
624091,538,1
624095,537,1
624099,536,1
624103,533,1
624107,523,1
624111,509,1
624115,495,1
624119,468,1
624123,437,1
624127,426,1
624131,448,1
624135,514,1
624139,627,1
624143,765,1
624147,825,1
624151,753,1
624155,613,1
624159,521,1
624163,520,1
624167,585,1
624171,645,1
624175,662,1
624179,648,1
624183,607,1
624187,562,1
624191,533,1
624195,519,1
624199,514,1
624203,514,1
624207,517,1
624211,514,1
624215,516,1
624219,517,1
624223,518,1
624227,517,1
624231,513,1
624235,512,1
624239,513,1
624243,514,1
624247,516,1
624251,516,1
624255,514,1
624259,516,1
624263,517,1
624267,517,1
624271,517,1
624275,517,1
624279,518,1
624283,519,1
624287,521,1
624291,520,1
624295,522,1
624299,523,1
624303,526,1
624307,528,1
624311,528,1
624315,528,1
624319,532,1
624323,535,1
624327,535,1
624331,536,1
624335,542,1
624339,546,1
624343,553,1
624347,556,1
624351,560,1
624355,562,1
624359,567,1
624363,572,1
624367,577,1
624371,579,1
624375,581,1
624379,585,1
624383,589,1
624387,592,1
624391,592,1
624395,594,1
624399,595,1
624403,594,1
624407,592,1
624411,589,1
624415,584,1
624419,579,1
624423,572,1
624427,566,1
624431,555,1
624435,547,1
624439,543,1
624443,538,1
624447,533,1
624451,526,1
624455,522,1
624459,519,1
624463,518,1
624467,517,1
624471,514,1
624475,512,1
624479,509,1
624483,509,1
624487,509,1
624491,509,1
624495,509,1
624499,509,1
624503,509,1
624507,509,1
624511,507,1
624515,507,1
624519,507,1
624523,508,1
624527,507,1
624531,506,1
624535,506,1
624539,507,1
624543,508,1
624547,511,1
624551,510,1
624555,509,1
624559,509,1
624563,511,1
624567,512,1
624571,509,1
624575,510,1
624579,513,1
624583,514,1
624587,517,1
624591,517,1
624595,517,1
624599,518,1
624603,519,1
624607,520,1
624611,519,1
624615,519,1
624619,519,1
624623,521,1
624627,522,1
624631,522,1
624635,523,1
624639,524,1
624643,525,1
624647,526,1
624651,525,1
624655,525,1
624659,526,1
624663,528,1
624667,529,1
624671,528,1
624675,528,1
624679,529,1
624683,531,1
624687,531,1
624691,529,1
624695,529,1
624699,531,1
624703,533,1
624707,534,1
624711,534,1
624715,535,1
624719,535,1
624723,536,1
624727,537,1
624731,536,1
624735,537,1
624739,538,1
624743,540,1
624747,541,1
624751,538,1
624755,537,1
624759,538,1
624763,538,1
624767,538,1
624771,536,1
624775,535,1
624779,535,1
624783,537,1
624787,540,1
624791,538,1
624795,537,1
624799,537,1
624803,538,1
624807,538,1
624811,538,1
624815,538,1
624819,541,1
624823,543,1
624827,543,1
624831,542,1
624835,542,1
624839,543,1
624843,545,1
624847,544,1
624851,545,1
624855,547,1
624859,554,1
624863,559,1
624867,561,1
624871,561,1
624875,557,1
624879,554,1
624883,553,1
624887,552,1
624891,547,1
624895,546,1
624899,543,1
624903,542,1
624907,542,1
624911,540,1
624915,537,1
624919,537,1
624923,541,1
624927,542,1
624931,542,1
624935,540,1
624939,537,1
624943,536,1
624947,532,1
624951,519,1
624955,505,1
624959,485,1
624963,454,1
624967,430,1
624971,430,1
624975,469,1
624979,555,1
624983,680,1
624987,804,1
624991,807,1
624995,687,1
624999,562,1
625003,512,1
625007,549,1
625011,614,1
625015,651,1
625019,649,1
625023,622,1
625027,579,1
625031,543,1
625035,522,1
625039,514,1
625043,513,1
625047,513,1
625051,513,1
625055,512,1
625059,512,1
625064,513,1
625068,513,1
625072,513,1
625076,513,1
625080,514,1
625084,516,1
625088,516,1
625092,516,1
625096,517,1
625100,518,1
625104,519,1
625108,519,1
625112,521,1
625116,521,1
625120,522,1
625124,522,1
625128,525,1
625132,525,1
625136,525,1
625140,526,1
625144,530,1
625148,533,1
625152,533,1
625156,534,1
625160,535,1
625164,538,1
625168,543,1
625172,545,1
625176,546,1
625180,549,1
625184,554,1
625188,557,1
625192,561,1
625196,566,1
625200,569,1
625204,574,1
625208,580,1
625212,584,1
625216,588,1
625220,591,1
625224,594,1
625228,596,1
625232,596,1
625236,596,1
625240,598,1
625244,601,1
625248,601,1
625252,596,1
625256,590,1
625260,585,1
625264,580,1
625268,572,1
625272,562,1
625276,553,1
625280,545,1
625284,538,1
625288,534,1
625292,529,1
625296,523,1
625300,520,1
625304,517,1
625308,513,1
625312,512,1
625316,508,1
625320,507,1
625324,507,1
625328,508,1
625332,508,1
625336,508,1
625340,509,1
625344,509,1
625348,508,1
625352,507,1
625356,505,1
625360,505,1
625364,505,1
625368,506,1
625372,506,1
625376,506,1
625380,506,1
625384,507,1
625388,507,1
625392,507,1
625396,506,1
625400,506,1
625404,508,1
625408,509,1
625412,509,1
625416,508,1
625420,508,1
625424,510,1
625428,514,1
625432,514,1
625436,514,1
625440,516,1
625444,517,1
625448,518,1
625452,519,1
625456,519,1
625460,520,1
625464,521,1
625468,522,1
625472,521,1
625476,519,1
625480,520,1
625484,521,1
625488,522,1
625492,523,1
625496,523,1
625500,525,1
625504,526,1
625508,526,1
625512,526,1
625516,525,1
625520,525,1
625524,526,1
625528,531,1
625532,532,1
625536,532,1
625540,532,1
625544,532,1
625548,533,1
625552,533,1
625556,533,1
625560,533,1
625564,534,1
625568,534,1
625572,533,1
625576,532,1
625580,531,1
625584,532,1
625588,534,1
625592,535,1
625596,534,1
625600,535,1
625604,536,1
625608,537,1
625612,537,1
625616,536,1
625620,538,1
625624,540,1
625628,541,1
625632,540,1
625636,538,1
625640,540,1
625644,540,1
625648,538,1
625652,538,1
625656,537,1
625660,536,1
625664,537,1
625668,538,1
625672,538,1
625676,535,1
625680,535,1
625684,537,1
625688,541,1
625692,541,1
625696,540,1
625700,541,1
625704,541,1
625708,541,1
625712,540,1
625716,540,1
625720,541,1
625724,541,1
625728,540,1
625732,537,1
625736,536,1
625740,538,1
625744,542,1
625748,543,1
625752,545,1
625756,546,1
625760,550,1
625764,554,1
625768,556,1
625772,557,1
625776,557,1
625780,555,1
625784,554,1
625788,553,1
625792,549,1
625796,545,1
625800,543,1
625804,543,1
625808,544,1
625812,543,1
625816,542,1
625820,541,1
625824,541,1
625828,542,1
625832,542,1
625836,541,1
625840,538,1
625844,537,1
625848,536,1
625852,530,1
625856,517,1
625860,499,1
625864,474,1
625868,439,1
625872,417,1
625876,434,1
625880,488,1
625884,589,1
625888,722,1
625892,812,1
625896,773,1
625900,642,1
625904,550,1
625908,554,1
625912,615,1
625916,663,1
625920,669,1
625924,646,1
625928,598,1
625932,553,1
625936,526,1
625940,516,1
625944,513,1
625948,514,1
625952,514,1
625956,513,1
625960,511,1
625964,512,1
625968,513,1
625972,513,1
625976,513,1
625980,513,1
625984,514,1
625988,516,1
625992,517,1
625996,514,1
626000,513,1
626004,513,1
626008,517,1
626012,519,1
626016,518,1
626020,517,1
626024,517,1
626028,518,1
626032,519,1
626036,519,1
626040,522,1
626044,523,1
626048,526,1
626052,528,1
626056,528,1
626060,528,1
626064,531,1
626068,533,1
626072,535,1
626076,537,1
626080,541,1
626084,543,1
626088,549,1
626092,555,1
626096,558,1
626100,562,1
626104,567,1
626108,570,1
626112,576,1
626116,579,1
626120,582,1
626124,586,1
626128,590,1
626132,592,1
626136,592,1
626140,594,1
626144,595,1
626148,594,1
626152,591,1
626156,588,1
626160,584,1
626164,580,1
626168,576,1
626172,568,1
626176,561,1
626180,553,1
626184,546,1
626188,541,1
626192,534,1
626196,528,1
626200,524,1
626204,521,1
626208,518,1
626212,517,1
626216,513,1
626220,509,1
626224,512,1
626228,514,1
626232,514,1
626236,509,1
626240,507,1
626244,507,1
626248,507,1
626252,506,1
626256,505,1
626260,506,1
626264,507,1
626268,508,1
626272,507,1
626276,507,1
626280,506,1
626284,505,1
626288,506,1
626292,505,1
626296,506,1
626300,508,1
626304,508,1
626308,512,1
626312,509,1
626316,508,1
626320,507,1
626324,508,1
626328,512,1
626332,513,1
626336,514,1
626340,514,1
626344,513,1
626348,513,1
626352,516,1
626356,517,1
626360,519,1
626364,522,1
626368,523,1
626372,523,1
626376,522,1
626380,522,1
626384,525,1
626388,526,1
626392,526,1
626396,525,1
626400,525,1
626404,526,1
626408,528,1
626412,528,1
626416,529,1
626420,532,1
626424,533,1
626428,534,1
626432,534,1
626436,534,1
626440,534,1
626444,533,1
626448,533,1
626452,533,1
626456,533,1
626460,534,1
626464,535,1
626468,536,1
626472,537,1
626476,536,1
626480,535,1
626484,535,1
626488,536,1
626492,538,1
626496,538,1
626500,538,1
626504,538,1
626508,540,1
626512,540,1
626516,536,1
626520,536,1
626525,537,1
626529,541,1
626533,542,1
626537,541,1
626541,538,1
626545,538,1
626549,537,1
626553,538,1
626557,538,1
626561,538,1
626565,537,1
626569,538,1
626573,541,1
626577,541,1
626581,541,1
626585,540,1
626589,540,1
626593,538,1
626597,538,1
626601,541,1
626605,541,1
626609,543,1
626613,547,1
626617,552,1
626621,554,1
626625,556,1
626629,558,1
626633,557,1
626637,553,1
626641,550,1
626645,547,1
626649,545,1
626653,543,1
626657,538,1
626661,536,1
626665,537,1
626669,540,1
626673,540,1
626677,538,1
626681,537,1
626685,538,1
626689,537,1
626693,536,1
626697,535,1
626701,534,1
626705,529,1
626709,519,1
626713,508,1
626717,488,1
626721,457,1
626725,433,1
626729,434,1
626733,474,1
626737,560,1
626741,689,1
626745,811,1
626749,813,1
626753,694,1
626757,560,1
626761,494,1
626765,521,1
626769,596,1
626773,649,1
626777,658,1
626781,638,1
626785,592,1
626789,552,1
626793,528,1
626797,517,1
626801,513,1
626805,514,1
626809,517,1
626813,518,1
626817,518,1
626821,517,1
626825,518,1
626829,518,1
626833,517,1
626837,516,1
626841,514,1
626845,514,1
626849,516,1
626853,518,1
626857,519,1
626861,518,1
626865,519,1
626869,519,1
626873,521,1
626877,521,1
626881,522,1
626885,523,1
626889,525,1
626893,526,1
626897,528,1
626901,530,1
626905,531,1
626909,533,1
626913,535,1
626917,536,1
626921,537,1
626925,541,1
626929,544,1
626933,546,1
626937,548,1
626941,552,1
626945,555,1
626949,561,1
626953,568,1
626957,572,1
626961,576,1
626965,580,1
626969,585,1
626973,590,1
626977,590,1
626981,590,1
626985,592,1
626989,596,1
626993,600,1
626997,600,1
627001,600,1
627005,597,1
627009,595,1
627013,592,1
627017,586,1
627021,580,1
627025,570,1
627029,562,1
627033,556,1
627037,548,1
627041,542,1
627045,535,1
627049,532,1
627053,528,1
627057,525,1
627061,522,1
627065,519,1
627069,518,1
627073,518,1
627077,516,1
627081,514,1
627085,514,1
627089,514,1
627093,514,1
627097,514,1
627101,514,1
627105,514,1
627109,514,1
627113,514,1
627117,513,1
627121,509,1
627125,509,1
627129,512,1
627133,512,1
627137,509,1
627141,509,1
627145,510,1
627149,512,1
627153,513,1
627157,512,1
627161,512,1
627165,513,1
627169,514,1
627173,514,1
627177,514,1
627181,513,1
627185,513,1
627189,516,1
627193,518,1
627197,517,1
627201,517,1
627205,518,1
627209,519,1
627213,521,1
627217,521,1
627221,519,1
627225,521,1
627229,522,1
627233,523,1
627237,524,1
627241,525,1
627245,525,1
627249,525,1
627253,525,1
627257,526,1
627261,525,1
627265,526,1
627269,528,1
627273,532,1
627277,531,1
627281,528,1
627285,528,1
627289,531,1
627293,534,1
627297,533,1
627301,532,1
627305,532,1
627309,533,1
627313,534,1
627317,532,1
627321,531,1
627325,532,1
627329,533,1
627333,533,1
627337,533,1
627341,532,1
627345,533,1
627349,533,1
627353,535,1
627357,535,1
627361,536,1
627365,536,1
627369,537,1
627373,536,1
627377,535,1
627381,534,1
627385,534,1
627389,535,1
627393,536,1
627397,535,1
627401,535,1
627405,536,1
627409,541,1
627413,542,1
627417,542,1
627421,542,1
627425,542,1
627429,541,1
627433,541,1
627437,541,1
627441,536,1
627445,536,1
627449,538,1
627453,542,1
627457,542,1
627461,540,1
627465,537,1
627469,538,1
627473,541,1
627477,542,1
627481,542,1
627485,542,1
627489,546,1
627493,552,1
627497,555,1
627501,556,1
627505,556,1
627509,555,1
627513,554,1
627517,550,1
627521,546,1
627525,544,1
627529,542,1
627533,542,1
627537,541,1
627541,541,1
627545,541,1
627549,540,1
627553,540,1
627557,538,1
627561,537,1
627565,537,1
627569,535,1
627573,534,1
627577,533,1
627581,529,1
627585,521,1
627589,509,1
627593,496,1
627597,470,1
627601,436,1
627605,415,1
627609,437,1
627613,496,1
627617,598,1
627621,728,1
627625,809,1
627629,762,1
627633,631,1
627637,541,1
627641,542,1
627645,603,1
627649,653,1
627653,662,1
627657,642,1
627661,595,1
627665,552,1
627669,526,1
627673,516,1
627677,509,1
627681,507,1
627685,507,1
627689,507,1
627693,509,1
627697,511,1
627701,509,1
627705,510,1
627709,512,1
627713,513,1
627717,513,1
627721,512,1
627725,512,1
627729,513,1
627733,514,1
627737,513,1
627741,513,1
627745,514,1
627749,517,1
627753,518,1
627757,519,1
627761,518,1
627765,518,1
627769,521,1
627773,523,1
627777,525,1
627781,524,1
627785,525,1
627789,526,1
627793,529,1
627797,532,1
627801,533,1
627805,534,1
627809,537,1
627813,541,1
627817,544,1
627821,546,1
627825,550,1
627829,555,1
627833,561,1
627837,566,1
627841,569,1
627845,573,1
627849,579,1
627853,582,1
627857,584,1
627861,586,1
627865,589,1
627869,592,1
627873,594,1
627877,595,1
627881,594,1
627885,592,1
627889,589,1
627893,585,1
627897,579,1
627901,570,1
627905,564,1
627909,556,1
627913,549,1
627917,543,1
627921,535,1
627925,529,1
627929,525,1
627933,522,1
627937,518,1
627941,514,1
627945,512,1
627949,512,1
627953,512,1
627957,509,1
627961,509,1
627965,508,1
627969,509,1
627973,509,1
627977,509,1
627981,508,1
627985,507,1
627989,507,1
627993,507,1
627997,507,1
628001,505,1
628006,505,1
628010,506,1
628014,506,1
628018,505,1
628022,504,1
628026,506,1
628030,507,1
628034,509,1
628038,508,1
628042,507,1
628046,507,1
628050,508,1
628054,509,1
628058,512,1
628062,512,1
628066,512,1
628070,513,1
628074,516,1
628078,517,1
628082,517,1
628086,518,1
628090,520,1
628094,521,1
628098,521,1
628102,519,1
628106,519,1
628110,521,1
628114,522,1
628118,521,1
628122,519,1
628126,519,1
628130,522,1
628134,523,1
628138,523,1
628142,522,1
628146,522,1
628150,523,1
628154,526,1
628158,526,1
628162,525,1
628166,523,1
628170,525,1
628174,528,1
628178,532,1
628182,532,1
628186,531,1
628190,532,1
628194,533,1
628198,532,1
628202,531,1
628206,528,1
628210,529,1
628214,531,1
628218,530,1
628222,526,1
628226,528,1
628230,531,1
628234,533,1
628238,534,1
628242,534,1
628246,534,1
628250,535,1
628254,536,1
628258,536,1
628262,535,1
628266,535,1
628270,536,1
628274,536,1
628278,536,1
628282,536,1
628286,536,1
628290,536,1
628294,540,1
628298,538,1
628302,536,1
628306,535,1
628310,536,1
628314,537,1
628318,537,1
628322,537,1
628326,538,1
628330,541,1
628334,542,1
628338,541,1
628342,538,1
628346,536,1
628350,538,1
628354,542,1
628358,543,1
628362,542,1
628366,541,1
628370,541,1
628374,541,1
628378,542,1
628382,541,1
628386,541,1
628390,543,1
628394,546,1
628398,549,1
628402,554,1
628406,555,1
628410,555,1
628414,555,1
628418,553,1
628422,552,1
628426,547,1
628430,545,1
628434,544,1
628438,543,1
628442,542,1
628446,543,1
628450,544,1
628454,543,1
628458,541,1
628462,538,1
628466,536,1
628470,538,1
628474,541,1
628478,542,1
628482,537,1
628486,528,1
628490,514,1
628494,500,1
628498,477,1
628502,441,1
628506,425,1
628510,440,1
628514,498,1
628518,603,1
628522,739,1
628526,821,1
628530,776,1
628534,638,1
628538,533,1
628542,514,1
628546,572,1
628550,639,1
628554,664,1
628558,653,1
628562,609,1
628566,564,1
628570,535,1
628574,522,1
628578,518,1
628582,514,1
628586,512,1
628590,509,1
628594,512,1
628598,511,1
628602,509,1
628606,512,1
628610,514,1
628614,516,1
628618,514,1
628622,513,1
628626,512,1
628630,512,1
628634,513,1
628638,514,1
628642,514,1
628646,514,1
628650,514,1
628654,516,1
628658,518,1
628662,518,1
628666,519,1
628670,521,1
628674,524,1
628678,525,1
628682,524,1
628686,524,1
628690,526,1
628694,530,1
628698,533,1
628702,535,1
628706,536,1
628710,540,1
628714,543,1
628718,545,1
628722,546,1
628726,549,1
628730,555,1
628734,561,1
628738,568,1
628742,570,1
628746,574,1
628750,579,1
628754,583,1
628758,588,1
628762,590,1
628766,592,1
628770,595,1
628774,598,1
628778,600,1
628782,600,1
628786,596,1
628790,594,1
628794,590,1
628798,585,1
628802,579,1
628806,571,1
628810,566,1
628814,557,1
628818,552,1
628822,543,1
628826,536,1
628830,531,1
628834,526,1
628838,524,1
628842,521,1
628846,517,1
628850,516,1
628854,517,1
628858,517,1
628862,514,1
628866,513,1
628870,512,1
628874,511,1
628878,512,1
628882,513,1
628886,513,1
628890,513,1
628894,513,1
628898,512,1
628902,509,1
628906,511,1
628910,513,1
628914,514,1
628918,514,1
628922,513,1
628926,512,1
628930,513,1
628934,514,1
628938,514,1
628942,514,1
628946,513,1
628950,514,1
628954,516,1
628958,517,1
628962,516,1
628966,517,1
628970,518,1
628974,519,1
628978,520,1
628982,519,1
628986,519,1
628990,521,1
628994,523,1
628998,525,1
629002,524,1
629006,525,1
629010,526,1
629014,528,1
629018,528,1
629022,526,1
629026,526,1
629030,528,1
629034,529,1
629038,532,1
629042,531,1
629046,532,1
629050,533,1
629054,534,1
629058,535,1
629062,534,1
629066,533,1
629070,534,1
629074,535,1
629078,535,1
629082,533,1
629086,532,1
629090,534,1
629094,536,1
629098,538,1
629102,537,1
629106,537,1
629110,536,1
629114,538,1
629118,541,1
629122,541,1
629126,538,1
629130,540,1
629134,542,1
629138,542,1
629142,541,1
629146,541,1
629150,541,1
629154,541,1
629158,542,1
629162,542,1
629166,541,1
629170,541,1
629174,542,1
629178,542,1
629182,542,1
629186,543,1
629190,544,1
629194,545,1
629198,544,1
629202,543,1
629206,542,1
629210,543,1
629214,546,1
629218,547,1
629222,547,1
629226,549,1
629230,552,1
629234,556,1
629238,560,1
629242,560,1
629246,557,1
629250,555,1
629254,553,1
629258,554,1
629262,552,1
629266,545,1
629270,543,1
629274,542,1
629278,543,1
629282,542,1
629286,541,1
629290,540,1
629294,540,1
629298,541,1
629302,538,1
629306,540,1
629310,541,1
629314,541,1
629318,535,1
629322,525,1
629326,512,1
629330,496,1
629334,469,1
629338,438,1
629342,426,1
629346,447,1
629350,514,1
629354,627,1
629358,763,1
629362,822,1
629366,751,1
629370,609,1
629374,521,1
629378,523,1
629382,585,1
629386,640,1
629391,653,1
629395,639,1
629399,598,1
629403,555,1
629407,531,1
629411,520,1
629415,517,1
629419,517,1
629423,516,1
629427,514,1
629431,513,1
629435,513,1
629439,516,1
629443,516,1
629447,516,1
629451,514,1
629455,514,1
629459,516,1
629463,517,1
629467,516,1
629471,516,1
629475,517,1
629479,519,1
629483,519,1
629487,519,1
629491,520,1
629495,521,1
629499,521,1
629503,519,1
629507,519,1
629511,522,1
629515,526,1
629519,528,1
629523,529,1
629527,530,1
629531,532,1
629535,535,1
629539,538,1
629543,542,1
629547,542,1
629551,544,1
629555,547,1
629559,553,1
629563,555,1
629567,560,1
629571,566,1
629575,570,1
629579,576,1
629583,580,1
629587,582,1
629591,586,1
629595,590,1
629599,595,1
629603,597,1
629607,598,1
629611,601,1
629615,602,1
629619,602,1
629623,600,1
629627,592,1
629631,585,1
629635,579,1
629639,572,1
629643,566,1
629647,558,1
629651,552,1
629655,544,1
629659,538,1
629663,533,1
629667,526,1
629671,521,1
629675,519,1
629679,518,1
629683,516,1
629687,514,1
629691,512,1
629695,511,1
629699,512,1
629703,512,1
629707,509,1
629711,508,1
629715,509,1
629719,512,1
629723,512,1
629727,509,1
629731,508,1
629735,507,1
629739,507,1
629743,506,1
629747,506,1
629751,507,1
629755,508,1
629759,508,1
629763,507,1
629767,506,1
629771,508,1
629775,509,1
629779,512,1
629783,512,1
629787,513,1
629791,514,1
629795,516,1
629799,517,1
629803,518,1
629807,518,1
629811,518,1
629815,519,1
629819,521,1
629823,521,1
629827,521,1
629831,522,1
629835,522,1
629839,522,1
629843,522,1
629847,522,1
629851,523,1
629855,525,1
629859,526,1
629863,528,1
629867,528,1
629871,529,1
629875,532,1
629879,533,1
629883,533,1
629887,532,1
629891,531,1
629895,532,1
629899,533,1
629903,533,1
629907,533,1
629911,533,1
629915,533,1
629919,532,1
629923,533,1
629927,533,1
629931,534,1
629935,535,1
629939,535,1
629943,534,1
629947,533,1
629951,534,1
629955,535,1
629959,536,1
629963,537,1
629967,537,1
629971,536,1
629975,538,1
629979,541,1
629983,542,1
629987,542,1
629991,542,1
629995,542,1
629999,543,1
630003,544,1
630007,543,1
630011,542,1
630015,541,1
630019,541,1
630023,541,1
630027,542,1
630031,542,1
630035,542,1
630039,542,1
630043,541,1
630047,537,1
630051,538,1
630055,541,1
630059,542,1
630063,543,1
630067,542,1
630071,541,1
630075,542,1
630079,543,1
630083,544,1
630087,543,1
630091,542,1
630095,544,1
630099,549,1
630103,555,1
630107,557,1
630111,558,1
630115,560,1
630119,561,1
630123,557,1
630127,554,1
630131,552,1
630135,549,1
630139,549,1
630143,546,1
630147,543,1
630151,543,1
630155,544,1
630159,544,1
630163,542,1
630167,541,1
630171,541,1
630175,542,1
630179,543,1
630183,543,1
630187,541,1
630191,533,1
630195,521,1
630199,508,1
630203,488,1
630207,456,1
630211,429,1
630215,434,1
630219,475,1
630223,565,1
630227,682,1
630231,798,1
630235,798,1
630239,680,1
630243,566,1
630247,535,1
630251,589,1
630255,652,1
630259,675,1
630263,661,1
630267,617,1
630271,567,1
630275,534,1
630279,521,1
630283,519,1
630287,517,1
630291,517,1
630295,516,1
630299,516,1
630303,514,1
630307,513,1
630311,513,1
630315,513,1
630319,516,1
630323,517,1
630327,514,1
630331,514,1
630335,516,1
630339,517,1
630343,517,1
630347,514,1
630351,514,1
630355,517,1
630359,519,1
630363,521,1
630367,519,1
630371,518,1
630375,519,1
630379,522,1
630383,525,1
630387,526,1
630391,526,1
630395,528,1
630399,531,1
630403,533,1
630407,533,1
630411,534,1
630415,535,1
630419,538,1
630423,543,1
630427,547,1
630431,553,1
630435,556,1
630439,560,1
630443,562,1
630447,566,1
630451,569,1
630455,574,1
630459,580,1
630463,585,1
630467,588,1
630471,589,1
630475,591,1
630479,594,1
630483,594,1
630487,592,1
630491,590,1
630495,589,1
630499,585,1
630503,581,1
630507,574,1
630511,569,1
630515,562,1
630519,556,1
630523,547,1
630527,541,1
630531,533,1
630535,528,1
630539,523,1
630543,519,1
630547,517,1
630551,514,1
630555,513,1
630559,513,1
630563,512,1
630567,512,1
630571,511,1
630575,509,1
630579,508,1
630583,508,1
630587,507,1
630591,507,1
630595,508,1
630599,508,1
630603,509,1
630607,509,1
630611,508,1
630615,508,1
630619,509,1
630623,508,1
630627,507,1
630631,507,1
630635,507,1
630639,508,1
630643,507,1
630647,507,1
630651,508,1
630655,513,1
630659,516,1
630663,518,1
630667,517,1
630671,516,1
630675,514,1
630679,516,1
630683,518,1
630687,517,1
630691,517,1
630695,517,1
630699,517,1
630703,518,1
630707,519,1
630711,522,1
630715,525,1
630719,526,1
630723,526,1
630727,525,1
630731,524,1
630735,525,1
630739,528,1
630743,528,1
630747,528,1
630751,528,1
630755,528,1
630759,528,1
630763,528,1
630767,528,1
630771,531,1
630775,533,1
630779,533,1
630783,533,1
630787,532,1
630791,531,1
630795,531,1
630799,532,1
630803,533,1
630807,533,1
630811,534,1
630815,536,1
630819,536,1
630823,537,1
630827,535,1
630831,534,1
630835,535,1
630840,537,1
630844,538,1
630848,536,1
630852,536,1
630856,537,1
630860,538,1
630864,538,1
630868,536,1
630872,536,1
630876,540,1
630880,541,1
630884,542,1
630888,541,1
630892,538,1
630896,537,1
630900,535,1
630904,536,1
630908,540,1
630912,541,1
630916,542,1
630920,546,1
630924,554,1
630928,556,1
630932,555,1
630936,554,1
630940,555,1
630944,555,1
630948,552,1
630952,546,1
630956,543,1
630960,542,1
630964,541,1
630968,540,1
630972,540,1
630976,540,1
630980,540,1
630984,538,1
630988,536,1
630992,536,1
630996,537,1
631000,540,1
631004,538,1
631008,535,1
631012,528,1
631016,517,1
631020,505,1
631024,486,1
631028,454,1
631032,430,1
631036,437,1
631040,481,1
631044,574,1
631048,709,1
631052,818,1
631056,802,1
631060,675,1
631064,547,1
631068,488,1
631072,519,1
631076,592,1
631080,640,1
631084,648,1
631088,628,1
631092,583,1
631096,545,1
631100,526,1
631104,519,1
631108,517,1
631112,517,1
631116,518,1
631120,518,1
631124,518,1
631128,517,1
631132,517,1
631136,517,1
631140,519,1
631144,519,1
631148,518,1
631152,518,1
631156,519,1
631160,521,1
631164,521,1
631168,522,1
631172,522,1
631176,522,1
631180,522,1
631184,523,1
631188,524,1
631192,525,1
631196,526,1
631200,529,1
631204,530,1
631208,531,1
631212,532,1
631216,534,1
631220,536,1
631224,538,1
631228,540,1
631232,541,1
631236,543,1
631240,546,1
631244,553,1
631248,555,1
631252,559,1
631256,562,1
631260,568,1
631264,576,1
631268,579,1
631272,581,1
631276,585,1
631280,589,1
631284,594,1
631288,596,1
631292,598,1
631296,600,1
631300,602,1
631304,604,1
631308,603,1
631312,600,1
631316,597,1
631320,594,1
631324,589,1
631328,581,1
631332,572,1
631336,566,1
631340,557,1
631344,552,1
631348,543,1
631352,536,1
631356,532,1
631360,526,1
631364,523,1
631368,521,1
631372,518,1
631376,517,1
631380,516,1
631384,517,1
631388,517,1
631392,514,1
631396,514,1
631400,513,1
631404,513,1
631408,512,1
631412,509,1
631416,510,1
631420,512,1
631424,514,1
631428,513,1
631432,512,1
631436,512,1
631440,512,1
631444,512,1
631448,513,1
631452,512,1
631456,513,1
631460,514,1
631464,514,1
631468,514,1
631472,513,1
631476,513,1
631480,514,1
631484,516,1
631488,516,1
631492,514,1
631496,517,1
631500,521,1
631504,522,1
631508,522,1
631512,521,1
631516,521,1
631520,521,1
631524,522,1
631528,523,1
631532,523,1
631536,525,1
631540,526,1
631544,529,1
631548,529,1
631552,529,1
631556,529,1
631560,531,1
631564,532,1
631568,532,1
631572,531,1
631576,529,1
631580,530,1
631584,532,1
631588,533,1
631592,533,1
631596,533,1
631600,534,1
631604,535,1
631608,535,1
631612,534,1
631616,534,1
631620,534,1
631624,536,1
631628,537,1
631632,535,1
631636,535,1
631640,535,1
631644,537,1
631648,538,1
631652,536,1
631656,538,1
631660,541,1
631664,543,1
631668,543,1
631672,542,1
631676,542,1
631680,543,1
631684,543,1
631688,542,1
631692,541,1
631696,540,1
631700,538,1
631704,538,1
631708,541,1
631712,538,1
631716,537,1
631720,538,1
631724,541,1
631728,540,1
631732,535,1
631736,537,1
631740,542,1
631744,545,1
631748,547,1
631752,555,1
631756,561,1
631760,561,1
631764,557,1
631768,556,1
631772,555,1
631776,553,1
631780,550,1
631784,547,1
631788,543,1
631792,541,1
631796,538,1
631800,540,1
631804,542,1
631808,541,1
631812,538,1
631816,538,1
631820,541,1
631824,541,1
631828,541,1
631832,540,1
631836,536,1
631840,533,1
631844,525,1
631848,513,1
631852,497,1
631856,470,1
631860,438,1
631864,427,1
631868,448,1
631872,513,1
631876,620,1
631880,753,1
631884,816,1
631888,746,1
631892,606,1
631896,526,1
631900,543,1
631904,608,1
631908,657,1
631912,661,1
631916,638,1
631920,591,1
631924,552,1
631928,526,1
631932,516,1
631936,512,1
631940,513,1
631944,514,1
631948,516,1
631952,514,1
631956,512,1
631960,512,1
631964,514,1
631968,516,1
631972,516,1
631976,518,1
631980,519,1
631984,521,1
631988,521,1
631992,519,1
631996,519,1
632000,519,1
632004,522,1
632008,521,1
632012,521,1
632016,521,1
632020,522,1
632024,524,1
632028,526,1
632032,526,1
632036,526,1
632040,528,1
632044,531,1
632048,532,1
632052,533,1
632056,535,1
632060,537,1
632064,542,1
632068,543,1
632072,545,1
632076,547,1
632080,552,1
632084,556,1
632088,560,1
632092,562,1
632096,568,1
632100,573,1
632104,579,1
632108,582,1
632112,585,1
632116,589,1
632120,594,1
632124,596,1
632128,596,1
632132,595,1
632136,594,1
632140,594,1
632144,593,1
632148,590,1
632152,585,1
632156,579,1
632160,572,1
632164,567,1
632168,557,1
632172,547,1
632176,542,1
632180,535,1
632184,529,1
632188,523,1
632192,519,1
632196,516,1
632200,513,1
632204,512,1
632208,512,1
632212,509,1
632216,508,1
632220,508,1
632224,509,1
632228,509,1
632232,508,1
632236,507,1
632240,507,1
632244,508,1
632248,508,1
632252,507,1
632256,506,1
632260,507,1
632264,508,1
632268,508,1
632272,507,1
632276,507,1
632280,509,1
632284,509,1
632288,509,1
632292,508,1
632296,508,1
632300,508,1
632304,509,1
632308,510,1
632312,510,1
632316,512,1
632321,514,1
632325,514,1
632329,516,1
632333,516,1
632337,517,1
632341,517,1
632345,518,1
632349,519,1
632353,519,1
632357,519,1
632361,520,1
632365,522,1
632369,523,1
632373,523,1
632377,524,1
632381,526,1
632385,526,1
632389,528,1
632393,526,1
632397,526,1
632401,526,1
632405,528,1
632409,528,1
632413,526,1
632417,526,1
632421,528,1
632425,531,1
632429,531,1
632433,529,1
632437,529,1
632441,532,1
632445,533,1
632449,533,1
632453,532,1
632457,529,1
632461,531,1
632465,533,1
632469,533,1
632473,533,1
632477,534,1
632481,535,1
632485,537,1
632489,536,1
632493,534,1
632497,534,1
632501,535,1
632505,536,1
632509,536,1
632513,535,1
632517,536,1
632521,537,1
632525,536,1
632529,536,1
632533,534,1
632537,534,1
632541,535,1
632545,536,1
632549,537,1
632553,535,1
632557,534,1
632561,535,1
632565,537,1
632569,538,1
632573,535,1
632577,535,1
632581,535,1
632585,538,1
632589,541,1
632593,538,1
632597,537,1
632601,536,1
632605,537,1
632609,540,1
632613,540,1
632617,540,1
632621,544,1
632625,552,1
632629,556,1
632633,556,1
632637,556,1
632641,557,1
632645,557,1
632649,553,1
632653,547,1
632657,545,1
632661,544,1
632665,543,1
632669,542,1
632673,538,1
632677,537,1
632681,536,1
632685,537,1
632689,538,1
632693,536,1
632697,536,1
632701,536,1
632705,535,1
632709,535,1
632713,531,1
632717,521,1
632721,509,1
632725,497,1
632729,475,1
632733,440,1
632737,425,1
632741,441,1
632745,501,1
632749,607,1
632753,739,1
632757,811,1
632761,754,1
632765,619,1
632769,528,1
632773,522,1
632777,582,1
632781,642,1
632785,661,1
632789,648,1
632793,606,1
632797,560,1
632801,531,1
632805,518,1
632809,513,1
632813,512,1
632817,512,1
632821,514,1
632825,516,1
632829,517,1
632833,517,1
632837,517,1
632841,516,1
632845,516,1
632849,516,1
632853,516,1
632857,516,1
632861,516,1
632865,517,1
632869,518,1
632873,518,1
632877,517,1
632881,516,1
632885,519,1
632889,521,1
632893,521,1
632897,521,1
632901,523,1
632905,526,1
632909,529,1
632913,529,1
632917,528,1
632921,529,1
632925,533,1
632929,535,1
632933,536,1
632937,540,1
632941,543,1
632945,546,1
632949,552,1
632953,553,1
632957,556,1
632961,562,1
632965,568,1
632969,570,1
632973,572,1
632977,576,1
632981,580,1
632985,585,1
632989,590,1
632993,591,1
632997,591,1
633001,592,1
633005,595,1
633009,595,1
633013,595,1
633017,595,1
633021,594,1
633025,590,1
633029,585,1
633033,577,1
633037,568,1
633041,561,1
633045,555,1
633049,549,1
633053,542,1
633057,534,1
633061,528,1
633065,523,1
633069,521,1
633073,518,1
633077,517,1
633081,514,1
633085,513,1
633089,514,1
633093,513,1
633097,512,1
633101,510,1
633105,509,1
633109,508,1
633113,508,1
633117,508,1
633121,507,1
633125,507,1
633129,509,1
633133,508,1
633137,507,1
633141,506,1
633145,506,1
633149,506,1
633153,505,1
633157,505,1
633161,506,1
633165,507,1
633169,511,1
633173,512,1
633177,512,1
633181,512,1
633185,514,1
633189,517,1
633193,514,1
633197,514,1
633201,516,1
633205,519,1
633209,521,1
633213,520,1
633217,518,1
633221,518,1
633225,521,1
633229,523,1
633233,523,1
633237,525,1
633241,526,1
633245,528,1
633249,529,1
633253,528,1
633257,526,1
633261,526,1
633265,528,1
633269,529,1
633273,529,1
633277,528,1
633281,531,1
633285,533,1
633289,534,1
633293,532,1
633297,531,1
633301,531,1
633305,533,1
633309,534,1
633313,535,1
633317,534,1
633321,534,1
633325,534,1
633329,535,1
633333,535,1
633337,534,1
633341,534,1
633345,535,1
633349,535,1
633353,536,1
633357,536,1
633361,536,1
633365,538,1
633369,540,1
633373,538,1
633377,537,1
633381,538,1
633385,538,1
633389,540,1
633393,538,1
633397,536,1
633401,538,1
633405,541,1
633409,542,1
633413,542,1
633417,541,1
633421,541,1
633425,541,1
633429,540,1
633433,538,1
633437,542,1
633441,543,1
633445,545,1
633449,548,1
633453,554,1
633457,557,1
633461,557,1
633465,555,1
633469,555,1
633473,553,1
633477,547,1
633481,544,1
633485,543,1
633489,543,1
633493,541,1
633497,536,1
633501,536,1
633505,535,1
633509,536,1
633513,536,1
633517,535,1
633521,536,1
633525,540,1
633529,541,1
633533,538,1
633537,536,1
633541,533,1
633545,522,1
633549,510,1
633553,495,1
633557,465,1
633561,437,1
633565,429,1
633569,456,1
633573,523,1
633577,638,1
633581,773,1
633585,820,1
633589,740,1
633593,597,1
633597,509,1
633601,513,1
633605,577,1
633609,636,1
633613,651,1
633617,637,1
633621,600,1
633625,559,1
633629,533,1
633633,519,1
633637,514,1
633641,512,1
633645,513,1
633649,514,1
633653,514,1
633657,514,1
633661,514,1
633665,516,1
633669,517,1
633673,516,1
633677,516,1
633681,517,1
633685,518,1
633689,520,1
633693,519,1
633697,519,1
633701,519,1
633705,519,1
633709,520,1
