timestamp_ms,value,lead_ok
54619,579,1
54623,541,1
54627,584,1
54631,645,1
54635,676,1
54639,673,1
54643,634,1
54647,582,1
54651,552,1
54655,541,1
54659,535,1
54663,532,1
54667,533,1
54671,534,1
54675,534,1
54679,533,1
54683,535,1
54687,536,1
54691,538,1
54695,538,1
54699,534,1
54703,533,1
54707,534,1
54711,536,1
54715,534,1
54719,532,1
54723,533,1
54727,538,1
54731,543,1
54735,544,1
54739,542,1
54743,542,1
54747,544,1
54751,547,1
54755,549,1
54759,549,1
54763,548,1
54767,552,1
54771,553,1
54775,553,1
54779,555,1
54783,556,1
54787,561,1
54791,567,1
54795,568,1
54799,568,1
54803,566,1
54807,568,1
54811,572,1
54815,579,1
54819,583,1
54823,586,1
54827,589,1
54831,594,1
54836,597,1
54840,600,1
54844,601,1
54848,603,1
54852,605,1
54856,606,1
54860,607,1
54864,607,1
54868,609,1
54872,608,1
54876,602,1
54880,588,1
54884,578,1
54888,573,1
54892,573,1
54896,569,1
54900,560,1
54904,550,1
54908,545,1
54912,543,1
54916,541,1
54920,536,1
54924,535,1
54928,536,1
54932,535,1
54936,533,1
54940,528,1
54944,530,1
54948,532,1
54952,532,1
54956,525,1
54960,517,1
54964,516,1
54968,519,1
54972,523,1
54976,523,1
54980,522,1
54984,521,1
54988,521,1
54992,522,1
54996,523,1
55000,522,1
55004,522,1
55008,523,1
55012,525,1
55016,528,1
55020,528,1
55024,528,1
55028,528,1
55032,529,1
55036,531,1
55040,533,1
55044,534,1
55048,535,1
55052,540,1
55056,542,1
55060,541,1
55064,541,1
55068,542,1
55072,541,1
55076,541,1
55080,536,1
55084,535,1
55088,537,1
55092,542,1
55096,544,1
55100,545,1
55104,542,1
55108,541,1
55112,541,1
55116,542,1
55120,546,1
55124,547,1
55128,545,1
55132,544,1
55136,545,1
55140,543,1
55144,541,1
55148,541,1
55152,542,1
55156,544,1
55160,544,1
55164,545,1
55168,546,1
55172,546,1
55176,546,1
55180,546,1
55184,544,1
55188,546,1
55192,552,1
55196,554,1
55200,553,1
55204,547,1
55208,549,1
55212,553,1
55216,553,1
55220,550,1
55224,549,1
55228,553,1
55232,553,1
55236,553,1
55240,553,1
55244,553,1
55248,553,1
55252,553,1
55256,554,1
55260,549,1
55264,545,1
55268,545,1
55272,547,1
55276,552,1
55280,547,1
55284,545,1
55288,543,1
55292,547,1
55296,552,1
55300,553,1
55304,559,1
55308,568,1
55312,571,1
55316,569,1
55320,568,1
55324,566,1
55328,562,1
55332,560,1
55336,556,1
55340,553,1
55344,547,1
55348,545,1
55352,546,1
55356,549,1
55360,550,1
55364,549,1
55368,549,1
55372,552,1
55376,552,1
55380,549,1
55384,547,1
55388,546,1
55392,545,1
55396,541,1
55400,526,1
55404,509,1
55408,488,1
55412,456,1
55416,428,1
55420,429,1
55424,469,1
55428,555,1
55432,677,1
55436,798,1
55440,809,1
55444,703,1
55448,574,1
55452,516,1
55456,536,1
55460,600,1
55464,649,1
55468,656,1
55472,634,1
55476,592,1
55480,555,1
55484,536,1
55488,533,1
55492,532,1
55496,532,1
55500,533,1
55504,532,1
55508,532,1
55512,532,1
55516,533,1
55520,533,1
55524,533,1
55528,533,1
55532,533,1
55536,531,1
55540,526,1
55544,523,1
55548,525,1
55553,528,1
55557,528,1
55561,528,1
55565,529,1
55569,534,1
55573,537,1
55577,536,1
55581,534,1
55585,534,1
55589,536,1
55593,541,1
55597,545,1
55601,547,1
55605,546,1
55609,545,1
55613,545,1
55617,546,1
55621,549,1
55625,553,1
55629,554,1
55633,557,1
55637,561,1
55641,564,1
55645,567,1
55649,569,1
55653,572,1
55657,576,1
55661,577,1
55665,579,1
55669,582,1
55673,588,1
55677,590,1
55681,590,1
55685,590,1
55689,590,1
55693,592,1
55697,592,1
55701,588,1
55705,581,1
55709,578,1
55713,576,1
55717,570,1
55721,558,1
55725,546,1
55729,542,1
55733,541,1
55737,536,1
55741,532,1
55745,526,1
55749,526,1
55753,528,1
55757,529,1
55761,525,1
55765,521,1
55769,520,1
55773,520,1
55777,521,1
55781,522,1
55785,519,1
55789,519,1
55793,521,1
55797,517,1
55801,512,1
55805,512,1
55809,516,1
55813,519,1
55817,521,1
55821,518,1
55825,514,1
55829,514,1
55833,516,1
55837,516,1
55841,518,1
56838,549,1
56842,556,1
56846,560,1
56850,561,1
56854,560,1
56858,557,1
56862,553,1
56866,548,1
56870,547,1
56858,557,1
56862,553,1
56866,548,1
56870,547,1
56858,557,1
56862,553,1
56866,548,1
56870,547,1
56874,545,1
56878,541,1
56882,537,1
56886,538,1
56878,541,1
56882,537,1
56886,538,1
56878,541,1
56882,537,1
56886,538,1
56878,541,1
56882,537,1
56886,538,1
56878,541,1
56882,537,1
56886,538,1
56878,541,1
56882,537,1
56886,538,1
56878,541,1
56882,537,1
56886,538,1
56878,541,1
56882,537,1
56886,538,1
56878,541,1
56882,537,1
56886,538,1
56878,541,1
56882,537,1
56886,538,1
56878,541,1
56882,537,1
56886,538,1
56878,541,1
56882,537,1
56886,538,1
56878,541,1
56882,537,1
56886,538,1
56878,541,1
56882,537,1
56886,538,1
56878,541,1
56882,537,1
56886,538,1
56878,541,1
56882,537,1
56886,538,1
56878,541,1
56882,537,1
56886,538,1
56878,541,1
56882,537,1
56886,538,1
56878,541,1
56882,537,1
56886,538,1
56878,541,1
56882,537,1
56886,538,1
56878,541,1
56882,537,1
56886,538,1
56878,541,1
56882,537,1
56886,538,1
56878,541,1
56882,537,1
56886,538,1
56878,541,1
56882,537,1
56886,538,1
56878,541,1
56882,537,1
56886,538,1
56878,541,1
56882,537,1
56886,538,1
56878,541,1
56882,537,1
56886,538,1
56878,541,1
56882,537,1
56886,538,1
56878,541,1
56882,537,1
56886,538,1
56878,541,1
56882,537,1
56886,538,1
56878,541,1
56882,537,1
56886,538,1
56878,541,1
56882,537,1
56886,538,1
56890,541,1
56894,542,1
56898,541,1
56902,538,1
56906,536,1
56910,538,1
56914,538,1
56918,535,1
56922,532,1
56926,532,1
56930,525,1
56934,512,1
56938,493,1
56942,462,1
56946,424,1
56950,397,1
56954,405,1
56958,457,1
56962,550,1
56966,681,1
56970,786,1
56974,765,1
56978,639,1
56982,528,1
56986,499,1
56990,546,1
56994,619,1
56998,658,1
57003,655,1
57007,622,1
57011,578,1
57015,545,1
57019,526,1
57023,517,1
57027,512,1
57031,510,1
57035,513,1
57039,514,1
57043,516,1
57047,518,1
57051,521,1
57055,522,1
57059,522,1
57063,521,1
57067,520,1
57071,518,1
57075,517,1
57079,521,1
57083,524,1
57087,525,1
57091,525,1
57095,523,1
57099,522,1
57103,522,1
57107,526,1
57111,528,1
57115,529,1
57119,532,1
57123,531,1
57127,533,1
57131,535,1
57135,538,1
57139,541,1
57143,544,1
57147,545,1
57151,542,1
57155,544,1
57159,553,1
57163,559,1
57167,561,1
57171,560,1
57175,557,1
57179,556,1
57183,561,1
57187,571,1
57191,579,1
57195,581,1
57199,585,1
57203,588,1
57207,592,1
57211,594,1
57215,596,1
57219,596,1
57223,595,1
57227,595,1
57231,594,1
57235,589,1
57239,581,1
57243,573,1
57247,564,1
57251,552,1
57255,545,1
57259,545,1
57263,542,1
57267,536,1
57271,536,1
57275,540,1
57279,534,1
57283,526,1
57287,522,1
57291,522,1
57295,522,1
57299,519,1
57303,516,1
57307,519,1
57311,524,1
57315,525,1
57319,522,1
57323,521,1
57327,522,1
57331,522,1
57335,521,1
57339,519,1
57343,519,1
57347,519,1
57351,524,1
57355,523,1
57359,518,1
57363,519,1
57367,523,1
57371,528,1
57375,534,1
57379,529,1
57383,519,1
57387,518,1
57391,528,1
57395,533,1
57399,532,1
57403,526,1
57407,522,1
57411,521,1
57415,524,1
57419,530,1
57423,532,1
57427,533,1
57431,533,1
57435,534,1
57439,538,1
57443,537,1
57447,534,1
57451,537,1
57455,542,1
57459,535,1
57463,529,1
57467,531,1
57471,535,1
57475,542,1
57479,545,1
57483,545,1
57487,541,1
57491,538,1
57495,541,1
57499,541,1
57503,541,1
57507,545,1
57511,553,1
57515,555,1
57519,554,1
57523,546,1
57527,544,1
57531,550,1
57535,545,1
57539,542,1
57543,543,1
57547,547,1
57551,561,1
57555,567,1
57559,568,1
57563,568,1
57567,568,1
57571,570,1
57575,573,1
57579,570,1
57583,562,1
57587,559,1
57591,555,1
57595,553,1
57599,554,1
57603,555,1
57607,549,1
57611,546,1
57615,543,1
57619,544,1
57623,548,1
57627,553,1
57631,552,1
57635,546,1
57639,543,1
57643,544,1
57647,541,1
57651,532,1
57655,517,1
57659,499,1
57663,469,1
57667,441,1
57671,429,1
57675,448,1
57679,512,1
57683,629,1
57687,772,1
57691,826,1
57695,762,1
57699,613,1
57703,506,1
57708,481,1
57712,534,1
57716,608,1
57720,645,1
57724,652,1
57728,630,1
57732,590,1
57736,556,1
57740,533,1
57744,523,1
57748,519,1
57752,523,1
57756,535,1
57760,536,1
57764,526,1
57768,521,1
57772,522,1
57776,526,1
57780,531,1
57784,532,1
57788,526,1
57792,523,1
57796,522,1
57800,523,1
57804,523,1
57808,522,1
57812,525,1
57816,536,1
57820,545,1
57824,544,1
57828,547,1
57832,544,1
57836,535,1
57840,532,1
57844,533,1
57848,535,1
57852,535,1
57856,538,1
57860,546,1
57864,547,1
57868,545,1
57872,546,1
57876,552,1
57880,556,1
57884,567,1
57888,567,1
57892,566,1
57896,566,1
57900,559,1
57904,561,1
57908,569,1
57912,578,1
57916,585,1
57920,586,1
57924,588,1
57928,589,1
57932,593,1
57936,595,1
57940,592,1
57944,591,1
57948,591,1
57952,585,1
57956,582,1
57960,578,1
57964,560,1
57968,549,1
57972,545,1
57976,545,1
57980,545,1
57984,542,1
57988,533,1
57992,519,1
57996,511,1
58000,509,1
58004,509,1
58008,507,1
58012,508,1
58016,509,1
58020,511,1
58024,502,1
58028,500,1
58032,504,1
58036,508,1
58040,507,1
58044,507,1
58048,506,1
58052,508,1
58056,512,1
58060,509,1
58064,505,1
58068,506,1
58072,504,1
58076,507,1
58080,507,1
58084,507,1
58088,509,1
58092,514,1
58096,512,1
58100,504,1
58104,497,1
58108,501,1
58112,505,1
58116,507,1
58120,512,1
58124,514,1
58128,517,1
58132,513,1
58136,514,1
58140,519,1
58144,514,1
58148,511,1
58152,518,1
58156,521,1
58160,521,1
58164,516,1
58168,519,1
58172,523,1
58176,526,1
58180,523,1
58184,521,1
58188,522,1
58192,526,1
58196,526,1
58200,531,1
58204,525,1
58208,519,1
58212,523,1
58216,524,1
58220,529,1
58224,534,1
58228,532,1
58232,526,1
58236,533,1
58240,537,1
58244,535,1
58248,533,1
58252,535,1
58256,535,1
58260,533,1
58264,532,1
58268,529,1
58272,528,1
58276,533,1
58280,525,1
58284,526,1
58288,529,1
58292,534,1
58296,538,1
58300,547,1
58304,558,1
58308,558,1
58312,558,1
58316,555,1
58320,547,1
58324,547,1
58328,546,1
58332,547,1
58336,545,1
58340,534,1
58344,528,1
58348,533,1
58352,535,1
58356,533,1
58360,535,1
58364,541,1
58368,538,1
58372,534,1
58376,526,1
58380,523,1
58384,529,1
58388,530,1
58392,518,1
58396,493,1
58400,459,1
58404,416,1
58408,401,1
58412,408,1
58416,446,1
58421,525,1
58425,654,1
58429,773,1
58433,763,1
58437,653,1
58441,541,1
58445,496,1
58449,524,1
58453,589,1
58457,641,1
58461,642,1
58465,618,1
58469,586,1
58473,544,1
58477,517,1
58481,513,1
58485,521,1
58489,522,1
58493,510,1
58497,501,1
58501,497,1
58505,502,1
58509,502,1
58513,499,1
58517,502,1
58521,513,1
58525,521,1
58529,521,1
58533,519,1
58537,519,1
58541,518,1
58545,519,1
58549,531,1
58553,536,1
58557,525,1
58561,508,1
58565,507,1
58569,518,1
58573,532,1
58577,533,1
58581,536,1
58585,535,1
58589,526,1
58593,522,1
58597,531,1
58601,538,1
58605,531,1
58609,530,1
58613,535,1
58617,541,1
58621,549,1
58625,558,1
58629,566,1
58633,569,1
58637,567,1
58641,555,1
58645,560,1
58649,573,1
58653,590,1
58657,582,1
58661,572,1
58665,572,1
58669,586,1
58673,592,1
58677,588,1
58681,588,1
58685,594,1
58689,581,1
58693,562,1
58697,555,1
58701,561,1
58705,562,1
58709,557,1
58713,549,1
58717,540,1
58721,535,1
58725,535,1
58729,537,1
58733,537,1
58737,532,1
58741,530,1
58745,526,1
58749,522,1
58753,509,1
58757,504,1
58761,506,1
58765,513,1
58769,509,1
58773,509,1
58777,513,1
58781,509,1
58785,512,1
58789,514,1
58793,516,1
58797,523,1
58801,522,1
58805,519,1
58809,517,1
58813,516,1
58817,513,1
58821,513,1
58825,514,1
58829,509,1
58833,505,1
58837,508,1
58841,514,1
58845,514,1
58849,518,1
58853,519,1
58857,518,1
58861,512,1
58865,509,1
58869,518,1
58873,523,1
58877,528,1
58881,526,1
58885,519,1
58889,523,1
58893,526,1
58897,530,1
58901,533,1
58905,525,1
58909,517,1
58913,525,1
58917,535,1
58921,542,1
58925,541,1
58929,538,1
58933,532,1
58937,528,1
58941,528,1
58945,532,1
58949,534,1
58953,536,1
58957,541,1
58961,547,1
58965,552,1
58969,544,1
58973,535,1
58977,535,1
58981,545,1
58985,549,1
58989,536,1
58993,538,1
58997,538,1
59001,533,1
59005,535,1
59009,545,1
59013,547,1
59017,546,1
59021,556,1
59025,568,1
59029,569,1
59033,561,1
59037,559,1
59041,557,1
59045,560,1
59049,564,1
59053,559,1
59057,550,1
59061,550,1
59065,547,1
59069,534,1
59073,531,1
59077,536,1
59081,540,1
59085,541,1
59089,545,1
59093,545,1
59097,550,1
59101,553,1
59105,544,1
59109,535,1
59113,524,1
59117,507,1
59122,484,1
59126,450,1
59130,413,1
59134,408,1
59138,437,1
59142,502,1
59146,625,1
59150,776,1
59154,833,1
59158,758,1
59162,602,1
59166,487,1
59170,460,1
59174,522,1
59178,614,1
59182,662,1
59186,665,1
59190,642,1
59194,596,1
59198,561,1
59202,534,1
59206,522,1
59210,521,1
59214,529,1
59218,535,1
59222,535,1
59226,528,1
59230,517,1
59234,514,1
59238,514,1
59242,521,1
59246,532,1
59250,529,1
59254,522,1
59258,519,1
59262,522,1
59266,532,1
59270,536,1
59274,541,1
59278,541,1
59282,534,1
59286,531,1
59290,533,1
59294,533,1
59298,533,1
59302,535,1
59306,538,1
59310,543,1
59314,545,1
59318,550,1
59322,553,1
59326,553,1
59330,546,1
59334,544,1
59338,553,1
59342,567,1
59346,574,1
59350,572,1
59354,568,1
59358,572,1
59362,586,1
59366,596,1
59370,594,1
59374,585,1
59378,583,1
59382,583,1
59386,592,1
59390,597,1
59394,597,1
59398,596,1
59402,596,1
59406,595,1
59410,594,1
59414,594,1
59418,588,1
59422,572,1
59426,562,1
59430,559,1
59434,556,1
59438,554,1
59442,546,1
59446,534,1
59450,529,1
59454,526,1
59458,528,1
59462,526,1
59466,521,1
59470,514,1
59474,512,1
59478,513,1
59482,516,1
59486,523,1
59490,526,1
59494,520,1
59498,512,1
59502,506,1
59506,504,1
59510,500,1
59514,500,1
59518,509,1
59522,516,1
59526,508,1
59530,507,1
59534,507,1
59538,513,1
59542,524,1
59546,522,1
59550,509,1
59554,499,1
59558,497,1
59562,500,1
59566,505,1
59570,508,1
59574,509,1
59578,511,1
59582,514,1
59586,517,1
59590,521,1
59594,517,1
59598,512,1
59602,505,1
59606,505,1
59610,514,1
59614,521,1
59618,514,1
59622,512,1
59626,514,1
59630,518,1
59634,516,1
59638,514,1
59642,509,1
59646,518,1
59650,523,1
59654,521,1
59658,519,1
59662,522,1
59666,523,1
59670,526,1
59674,528,1
59678,532,1
59682,526,1
59686,519,1
59690,523,1
59694,533,1
59698,532,1
59702,524,1
59706,518,1
59710,514,1
59714,511,1
59718,519,1
59722,529,1
59726,525,1
59730,522,1
59734,526,1
59738,533,1
59742,535,1
59746,535,1
59750,533,1
59754,532,1
59758,536,1
59762,542,1
59766,547,1
59770,557,1
59774,570,1
59778,559,1
59782,536,1
59786,529,1
59790,532,1
59794,532,1
59798,535,1
59802,543,1
59806,543,1
59810,532,1
59814,525,1
59819,532,1
59823,541,1
59827,545,1
59831,540,1
59835,526,1
59839,521,1
59843,523,1
59847,523,1
59851,528,1
59855,534,1
59859,540,1
59863,525,1
59867,502,1
59871,473,1
59875,438,1
59879,402,1
59883,397,1
59887,426,1
59891,474,1
59895,570,1
59899,691,1
59903,794,1
59907,772,1
59911,631,1
59915,520,1
59919,502,1
59923,562,1
59927,633,1
59931,660,1
59935,657,1
59939,618,1
59943,567,1
59947,538,1
59951,536,1
59955,519,1
59959,501,1
59963,502,1
59967,508,1
59971,522,1
59975,537,1
59979,507,1
59983,481,1
59987,483,1
59991,499,1
59995,514,1
59999,507,1
60003,497,1
60007,499,1
60011,507,1
60015,518,1
60019,521,1
60023,513,1
60027,512,1
60031,512,1
60035,513,1
60039,533,1
60043,552,1
60047,546,1
60051,519,1
60055,504,1
60059,506,1
60063,514,1
60067,530,1
60071,537,1
60075,535,1
60079,522,1
60083,519,1
60087,529,1
60091,534,1
60095,542,1
60099,555,1
60103,555,1
60107,553,1
60111,559,1
60115,572,1
60119,577,1
60123,581,1
60127,588,1
60131,585,1
60135,590,1
60139,590,1
60143,588,1
60147,592,1
60151,588,1
60155,577,1
60159,562,1
60163,544,1
60167,541,1
60171,554,1
60175,569,1
60179,558,1
60183,545,1
60187,546,1
60191,549,1
60195,547,1
60199,534,1
60203,526,1
60207,516,1
60211,522,1
60215,522,1
60219,517,1
60223,513,1
60227,506,1
60231,502,1
60235,495,1
60239,490,1
60243,496,1
60247,505,1
60251,508,1
60255,509,1
60259,513,1
60263,507,1
60267,526,1
60271,530,1
60275,504,1
60279,484,1
60283,488,1
60287,502,1
60291,507,1
60295,513,1
60299,533,1
60303,526,1
60307,512,1
60311,506,1
60315,496,1
60319,494,1
60323,499,1
60327,500,1
60331,509,1
60335,516,1
60339,516,1
60343,517,1
60347,523,1
60351,536,1
60355,531,1
60359,521,1
60363,525,1
60367,533,1
60371,524,1
60375,519,1
60379,528,1
60383,524,1
60387,521,1
60391,519,1
60395,518,1
60399,525,1
60403,525,1
60407,529,1
60411,533,1
60415,535,1
60419,538,1
60423,534,1
60427,533,1
60431,540,1
60435,542,1
60439,537,1
60443,531,1
60447,528,1
60451,533,1
60455,538,1
60459,541,1
60463,538,1
60467,536,1
60471,538,1
60475,542,1
60479,541,1
60483,532,1
60487,528,1
60491,532,1
60495,538,1
60499,541,1
60503,534,1
60507,536,1
60511,541,1
60515,542,1
60519,542,1
60523,538,1
60527,535,1
60531,538,1
60535,543,1
60539,546,1
60544,545,1
60548,545,1
60552,547,1
60556,553,1
60560,556,1
60564,556,1
60568,558,1
60572,564,1
60576,566,1
60580,566,1
60584,567,1
60588,562,1
60592,562,1
60596,562,1
60600,560,1
60604,547,1
60608,543,1
60612,545,1
60616,549,1
60620,550,1
60624,547,1
60628,546,1
60632,549,1
60636,552,1
60640,547,1
60644,542,1
60648,542,1
60652,543,1
60656,543,1
60660,533,1
60664,516,1
60668,497,1
60672,475,1
60676,449,1
60680,434,1
60684,439,1
60688,477,1
60692,562,1
60696,690,1
60700,800,1
60704,790,1
60708,668,1
60712,552,1
60716,506,1
60720,538,1
60724,608,1
60728,661,1
60732,664,1
60736,628,1
60740,579,1
60744,546,1
60748,533,1
60752,528,1
60756,524,1
60760,521,1
60764,519,1
60768,518,1
60772,519,1
60776,522,1
60780,526,1
60784,525,1
60788,523,1
60792,523,1
60796,524,1
60800,524,1
60804,525,1
60808,525,1
60812,523,1
60816,523,1
60820,526,1
60824,529,1
60828,534,1
60832,538,1
60836,535,1
60840,534,1
60844,532,1
60848,528,1
60852,528,1
60856,530,1
60860,532,1
60864,535,1
60868,538,1
60872,540,1
60876,542,1
60880,545,1
60884,546,1
60888,545,1
60892,544,1
60896,546,1
60900,553,1
60904,556,1
60908,561,1
60912,567,1
60916,569,1
60920,570,1
60924,573,1
60928,578,1
60932,582,1
60936,585,1
60940,586,1
60944,581,1
60948,578,1
60952,576,1
60956,578,1
60960,579,1
60964,578,1
60968,570,1
60972,564,1
60976,560,1
60980,556,1
60984,552,1
60988,544,1
60992,541,1
60996,538,1
61000,535,1
61004,528,1
61008,522,1
61012,520,1
61016,521,1
61020,523,1
61024,525,1
61028,524,1
61032,522,1
61036,518,1
61040,514,1
61044,513,1
61048,514,1
61052,517,1
61056,518,1
61060,519,1
61064,518,1
61068,518,1
61072,521,1
61076,523,1
61080,522,1
61084,519,1
61088,518,1
61092,518,1
61096,518,1
61100,518,1
61104,516,1
61108,518,1
61112,523,1
61116,523,1
61120,522,1
61124,519,1
61128,521,1
61132,522,1
61136,526,1
61140,532,1
61144,532,1
61148,531,1
61152,525,1
61156,525,1
61160,529,1
61164,531,1
61168,526,1
61172,525,1
61176,528,1
61180,531,1
61184,532,1
61188,532,1
61192,533,1
61196,536,1
61200,538,1
61204,538,1
61208,538,1
61212,540,1
61216,542,1
61220,545,1
61224,545,1
61228,545,1
61232,544,1
61236,543,1
61240,543,1
61244,543,1
61248,543,1
61252,543,1
61256,545,1
61260,547,1
61264,547,1
61268,547,1
61272,550,1
61276,552,1
61280,550,1
61284,547,1
61288,546,1
61293,547,1
61297,550,1
61301,554,1
61305,553,1
61309,552,1
61313,549,1
61317,549,1
61321,552,1
61325,555,1
61329,558,1
61333,561,1
61337,566,1
61341,571,1
61345,576,1
61349,572,1
61353,568,1
61357,567,1
61361,568,1
61365,568,1
61369,567,1
61373,566,1
61377,561,1
61381,556,1
61385,553,1
61389,552,1
61393,552,1
61397,552,1
61401,553,1
61405,552,1
61409,553,1
61413,555,1
61417,555,1
61421,552,1
61425,543,1
61429,533,1
61433,519,1
61437,504,1
61441,477,1
61445,440,1
61449,423,1
61453,440,1
61457,499,1
61461,601,1
61465,739,1
61469,822,1
61473,780,1
61477,644,1
61481,534,1
61485,500,1
61489,544,1
61493,616,1
61497,658,1
61501,658,1
61505,626,1
61509,578,1
61513,543,1
61517,524,1
61521,518,1
61525,516,1
61529,522,1
61533,526,1
61537,530,1
61541,535,1
61545,535,1
61549,535,1
61553,533,1
61557,531,1
61561,528,1
61565,523,1
61569,523,1
61573,526,1
61577,529,1
61581,529,1
61585,529,1
61589,528,1
61593,532,1
61597,533,1
61601,535,1
61605,535,1
61609,535,1
61613,534,1
61617,535,1
61621,536,1
61625,537,1
61629,540,1
61633,542,1
61637,542,1
61641,541,1
61645,538,1
61649,542,1
61653,550,1
61657,553,1
61661,553,1
61665,550,1
61669,554,1
61673,560,1
61677,564,1
61681,570,1
61685,571,1
61689,571,1
61693,574,1
61697,581,1
61701,585,1
61705,585,1
61709,585,1
61713,586,1
61717,588,1
61721,586,1
61725,581,1
61729,577,1
61733,571,1
61737,567,1
61741,560,1
61745,555,1
61749,552,1
61753,543,1
61757,537,1
61761,533,1
61765,528,1
61769,522,1
61773,517,1
61777,513,1
61781,509,1
61785,508,1
61789,511,1
61793,512,1
61797,513,1
61801,511,1
61805,509,1
61809,512,1
61813,509,1
61817,508,1
61821,513,1
61825,517,1
61829,516,1
61833,507,1
61837,502,1
61841,501,1
61845,499,1
61849,497,1
61853,504,1
61857,514,1
61861,520,1
61865,514,1
61869,508,1
61873,511,1
61877,523,1
61881,543,1
61885,553,1
61889,537,1
61893,514,1
61897,500,1
61901,497,1
61905,496,1
61909,497,1
61913,501,1
61917,506,1
61921,509,1
61925,513,1
61929,513,1
61933,519,1
61937,523,1
61941,526,1
61945,542,1
61949,560,1
61953,560,1
61957,553,1
61961,541,1
61965,532,1
61969,525,1
61973,513,1
61977,504,1
61981,505,1
61985,509,1
61989,512,1
61993,511,1
61997,513,1
62001,521,1
62005,531,1
62009,537,1
62013,538,1
62018,542,1
62022,541,1
62026,533,1
62030,535,1
62034,546,1
62038,555,1
62042,550,1
62046,534,1
62050,518,1
62054,509,1
62058,516,1
62062,523,1
62066,528,1
62070,532,1
62074,535,1
62078,537,1
62082,538,1
62086,541,1
62090,546,1
62094,554,1
62098,568,1
62102,580,1
62106,566,1
62110,549,1
62114,549,1
62118,553,1
62122,547,1
62126,542,1
62130,536,1
62134,537,1
62138,535,1
62142,534,1
62146,532,1
62150,535,1
62154,538,1
62158,535,1
62162,536,1
62166,538,1
62170,540,1
62174,542,1
62178,541,1
62182,531,1
62186,516,1
62190,509,1
62194,500,1
62198,487,1
62202,470,1
62206,439,1
62210,402,1
62214,396,1
62218,450,1
62222,555,1
62226,682,1
62230,793,1
62234,787,1
62238,672,1
62242,555,1
62246,505,1
62250,528,1
62254,594,1
62258,645,1
62262,646,1
62266,617,1
62270,581,1
62274,554,1
62278,532,1
62282,507,1
62286,498,1
62290,508,1
62294,525,1
62298,532,1
62302,528,1
62306,514,1
62310,487,1
62314,480,1
62318,496,1
62322,522,1
62326,526,1
62330,526,1
62334,522,1
62338,517,1
62342,511,1
62346,496,1
62350,488,1
62354,488,1
62358,507,1
62362,523,1
62366,523,1
62370,517,1
62374,519,1
62378,528,1
62382,535,1
62386,533,1
62390,522,1
62394,513,1
62398,514,1
62402,513,1
62406,502,1
62410,499,1
62414,502,1
62418,504,1
62422,513,1
62426,529,1
62430,550,1
62434,577,1
62438,602,1
62442,597,1
62446,600,1
62450,627,1
62454,622,1
62458,594,1
62462,592,1
62466,579,1
62470,538,1
62474,512,1
62478,545,1
62482,613,1
62486,651,1
62490,629,1
62494,609,1
62498,666,1
62502,758,1
62506,795,1
62510,849,1
62514,840,1
62518,700,1
62522,483,1
62526,381,1
62530,452,1
62534,519,1
62538,511,1
62542,487,1
62546,469,1
62550,499,1
62554,615,1
62558,629,1
62562,490,1
62566,397,1
62570,416,1
62574,526,1
62578,568,1
62582,517,1
62586,475,1
62590,511,1
62594,578,1
62598,534,1
62602,488,1
62606,528,1
62610,598,1
62614,556,1
62618,453,1
62622,415,1
62626,450,1
62630,510,1
62634,530,1
62638,507,1
62642,469,1
62646,464,1
62650,532,1
62654,581,1
62658,529,1
62662,483,1
62666,497,1
62670,506,1
62674,499,1
62678,513,1
62682,523,1
62686,505,1
62690,561,1
62694,664,1
62698,639,1
62702,521,1
62706,465,1
62710,449,1
62714,446,1
62718,469,1
62722,494,1
62726,506,1
62730,509,1
62734,502,1
62738,499,1
62742,504,1
62746,508,1
62751,507,1
62755,508,1
62759,511,1
62763,519,1
62767,533,1
62771,535,1
62775,547,1
62779,553,1
62783,522,1
62787,497,1
62791,494,1
62795,504,1
62799,519,1
62803,512,1
62807,502,1
62811,513,1
62815,525,1
62819,528,1
62823,519,1
62827,523,1
62831,528,1
62835,529,1
62839,532,1
62843,525,1
62847,526,1
62851,559,1
62855,607,1
62859,646,1
62863,595,1
62867,541,1
62871,502,1
62875,517,1
62879,519,1
62883,536,1
62887,552,1
62891,497,1
62895,462,1
62899,475,1
62903,498,1
62907,514,1
62911,523,1
62915,523,1
62919,513,1
62923,507,1
62927,478,1
62931,397,1
62935,320,1
62939,312,1
62943,403,1
62947,525,1
62951,633,1
62955,712,1
62959,705,1
62963,614,1
62967,532,1
62971,512,1
62975,556,1
62979,627,1
62983,669,1
62987,669,1
62991,640,1
62995,606,1
62999,569,1
63003,531,1
63007,517,1
63011,525,1
63015,528,1
63019,532,1
63023,517,1
63027,500,1
63031,495,1
63035,499,1
63039,504,1
63043,507,1
63047,508,1
63051,506,1
63055,507,1
63059,517,1
63063,519,1
63067,519,1
63071,521,1
63075,519,1
63079,517,1
63083,518,1
63087,519,1
63091,519,1
63095,521,1
63099,523,1
63103,525,1
63107,528,1
63111,529,1
63115,531,1
63119,528,1
63123,526,1
63127,528,1
63131,536,1
63135,544,1
63139,542,1
63143,538,1
63147,543,1
63151,545,1
63155,553,1
63159,561,1
63163,558,1
63167,553,1
63171,553,1
63175,560,1
63179,572,1
63183,579,1
63187,570,1
63191,566,1
63195,569,1
63199,572,1
63203,572,1
63207,573,1
63211,577,1
63215,576,1
63219,571,1
63223,560,1
63227,548,1
63231,541,1
63235,536,1
63239,536,1
63243,533,1
63247,525,1
63251,519,1
63255,517,1
63259,517,1
63263,514,1
63267,514,1
63271,514,1
63275,512,1
63279,510,1
63283,508,1
63287,505,1
63291,506,1
63295,506,1
63299,506,1
63303,505,1
63307,506,1
63311,507,1
63315,509,1
63319,509,1
63323,507,1
63327,507,1
63331,507,1
63335,507,1
63339,506,1
63343,501,1
63347,499,1
63351,502,1
63355,507,1
63359,513,1
63363,514,1
63367,528,1
63371,541,1
63375,533,1
63379,514,1
63383,497,1
63387,493,1
63391,499,1
63395,512,1
63399,520,1
63403,517,1
63407,512,1
63411,512,1
63415,517,1
63419,522,1
63423,523,1
63427,523,1
63431,525,1
63435,529,1
63439,533,1
63443,533,1
63447,526,1
63451,521,1
63456,522,1
63460,521,1
63464,519,1
63468,520,1
63472,523,1
63476,525,1
63480,525,1
63484,525,1
63488,525,1
63492,529,1
63496,534,1
63500,537,1
63504,537,1
63508,535,1
63512,534,1
63516,535,1
63520,537,1
63524,535,1
63528,537,1
63532,538,1
63536,538,1
63540,542,1
63544,546,1
63548,553,1
63552,555,1
63556,556,1
63560,559,1
63564,559,1
63568,555,1
63572,555,1
63576,555,1
63580,555,1
63584,545,1
63588,535,1
63592,534,1
63596,541,1
63600,545,1
63604,545,1
63608,543,1
63612,542,1
63616,543,1
63620,545,1
63624,545,1
63628,544,1
63632,535,1
63636,521,1
63640,504,1
63644,478,1
63648,442,1
63652,414,1
63656,423,1
63660,469,1
63664,566,1
63668,705,1
63672,831,1
63676,835,1
63680,720,1
63684,570,1
63688,488,1
63692,488,1
63696,557,1
63700,633,1
63704,664,1
63708,656,1
63712,615,1
63716,569,1
63720,544,1
63724,533,1
63728,530,1
63732,534,1
63736,552,1
63740,572,1
63744,577,1
63748,559,1
63752,538,1
63756,525,1
63760,516,1
63764,509,1
63768,513,1
63772,519,1
63776,528,1
63780,533,1
63784,534,1
63788,534,1
63792,533,1
63796,534,1
63800,535,1
63804,535,1
63808,541,1
63812,545,1
63816,547,1
63820,546,1
63824,543,1
63828,543,1
63832,546,1
63836,553,1
63840,555,1
63844,554,1
63848,555,1
63852,556,1
63856,562,1
63860,569,1
63864,571,1
63868,572,1
63872,576,1
63876,581,1
63880,585,1
63884,586,1
63888,589,1
63892,594,1
63896,600,1
63900,601,1
63904,600,1
63908,602,1
63912,607,1
63916,615,1
63920,615,1
63924,607,1
63928,602,1
63932,600,1
63936,598,1
63940,598,1
63944,590,1
63948,582,1
63952,577,1
63956,571,1
63960,567,1
63964,560,1
63968,555,1
63972,547,1
63976,545,1
63980,543,1
63984,546,1
63988,554,1
63992,549,1
63996,534,1
64000,525,1
64004,519,1
64008,518,1
64012,519,1
64016,523,1
64020,529,1
64024,528,1
64028,525,1
64032,524,1
64036,525,1
64040,525,1
64044,523,1
64048,522,1
64052,523,1
64056,523,1
64060,523,1
64064,521,1
64068,521,1
64072,523,1
64076,528,1
64080,529,1
64084,526,1
64088,525,1
64092,525,1
64096,528,1
64100,529,1
64104,528,1
64108,526,1
64112,526,1
64116,528,1
64120,530,1
64124,529,1
64128,528,1
64132,528,1
64136,532,1
64140,534,1
64144,536,1
64148,536,1
64152,535,1
64156,535,1
64160,534,1
64164,533,1
64168,532,1
64172,534,1
64177,536,1
64181,537,1
64185,536,1
64189,537,1
64193,540,1
64197,541,1
64201,540,1
64205,538,1
64209,540,1
64213,541,1
64217,541,1
64221,536,1
64225,541,1
64229,546,1
64233,550,1
64237,553,1
64241,561,1
64245,565,1
64249,566,1
64253,564,1
64257,564,1
64261,561,1
64265,552,1
64269,546,1
64273,547,1
64277,547,1
64281,546,1
64285,545,1
64289,543,1
64293,542,1
64297,542,1
64301,542,1
64305,542,1
64309,542,1
64313,541,1
64317,538,1
64321,536,1
64325,534,1
64329,533,1
64333,523,1
64337,508,1
64341,481,1
64345,447,1
64349,430,1
64353,447,1
64357,501,1
64361,601,1
64365,736,1
64369,830,1
64373,797,1
64377,662,1
64381,544,1
64385,500,1
64389,535,1
64393,597,1
64397,634,1
64401,642,1
64405,619,1
64409,577,1
64413,543,1
64417,533,1
64421,528,1
64425,521,1
64429,516,1
64433,513,1
64437,513,1
64441,516,1
64445,516,1
64449,518,1
64453,518,1
64457,521,1
64461,522,1
64465,522,1
64469,520,1
64473,522,1
64477,532,1
64481,546,1
64485,547,1
64489,535,1
64493,524,1
64497,519,1
64501,516,1
64505,517,1
64509,521,1
64513,522,1
64517,523,1
64521,526,1
64525,528,1
64529,528,1
64533,529,1
64537,534,1
64541,537,1
64545,540,1
64549,542,1
64553,544,1
64557,553,1
64561,566,1
64565,569,1
64569,566,1
64573,558,1
64577,557,1
64581,560,1
64585,566,1
64589,570,1
64593,577,1
64597,581,1
64601,582,1
64605,582,1
64609,584,1
64613,585,1
64617,586,1
64621,590,1
64625,591,1
64629,586,1
64633,580,1
64637,572,1
64641,568,1
64645,568,1
64649,564,1
64653,549,1
64657,531,1
64661,516,1
64665,509,1
64669,508,1
64673,508,1
64677,508,1
64681,507,1
64685,504,1
64689,502,1
64693,504,1
64697,505,1
64701,505,1
64705,504,1
64709,506,1
64713,510,1
64717,514,1
64721,526,1
64725,552,1
64729,552,1
64733,526,1
64737,499,1
64741,477,1
64745,471,1
64749,478,1
64753,490,1
64757,499,1
64761,502,1
64765,500,1
64769,500,1
64773,501,1
64777,505,1
64781,505,1
64785,505,1
64789,506,1
64793,507,1
64797,509,1
64801,511,1
64805,509,1
64809,510,1
64813,513,1
64817,516,1
64821,517,1
64825,516,1
64829,514,1
64833,518,1
64837,519,1
64841,520,1
64845,521,1
64849,526,1
64853,532,1
64857,533,1
64861,525,1
64865,521,1
64869,528,1
64873,534,1
64877,535,1
64881,525,1
64885,511,1
64889,505,1
64893,509,1
64897,516,1
64901,517,1
64905,518,1
64909,523,1
64913,531,1
64917,536,1
64921,538,1
64925,545,1
64929,554,1
64933,559,1
64937,564,1
64941,570,1
64945,580,1
64949,567,1
64953,533,1
64957,507,1
64961,499,1
64965,505,1
64969,516,1
64973,524,1
64977,531,1
64981,532,1
64985,526,1
64989,524,1
64993,525,1
64997,528,1
65001,528,1
65006,525,1
65010,522,1
65014,513,1
65018,504,1
65022,488,1
65026,461,1
65030,429,1
65034,413,1
65038,444,1
65042,525,1
65046,651,1
65050,777,1
65054,807,1
65058,720,1
65062,571,1
65066,485,1
65070,487,1
65074,552,1
65078,622,1
65082,648,1
65086,639,1
65090,600,1
65094,557,1
65098,532,1
65102,519,1
65106,512,1
65110,507,1
65114,508,1
65118,513,1
65122,518,1
65126,519,1
65130,518,1
65134,518,1
65138,517,1
65142,516,1
65146,514,1
65150,514,1
65154,516,1
65158,518,1
65162,521,1
65166,522,1
65170,522,1
65174,522,1
65178,524,1
65182,526,1
65186,528,1
65190,528,1
65194,529,1
65198,531,1
65202,529,1
65206,529,1
65210,529,1
65214,532,1
65218,535,1
65222,536,1
65226,536,1
65230,537,1
65234,541,1
65238,545,1
65242,549,1
65246,554,1
65250,560,1
65254,562,1
65258,567,1
65262,566,1
65266,566,1
65270,570,1
65274,577,1
65278,582,1
65282,583,1
65286,582,1
65290,585,1
65294,586,1
65298,590,1
65302,590,1
65306,589,1
65310,586,1
65314,581,1
65318,577,1
65322,570,1
65326,566,1
65330,557,1
65334,550,1
65338,544,1
65342,536,1
65346,533,1
65350,531,1
65354,528,1
65358,526,1
65362,523,1
65366,518,1
65370,513,1
65374,514,1
65378,519,1
65382,520,1
65386,514,1
65390,511,1
65394,512,1
65398,516,1
65402,514,1
65406,509,1
65410,507,1
65414,508,1
65418,509,1
65422,512,1
65426,512,1
65430,512,1
65434,516,1
65438,518,1
65442,516,1
65446,513,1
65450,516,1
65454,520,1
65458,521,1
65462,516,1
65466,514,1
65470,517,1
65474,520,1
65478,522,1
65482,521,1
65486,518,1
65490,517,1
65494,520,1
65498,528,1
65502,532,1
65506,528,1
65510,525,1
65514,525,1
65518,526,1
65522,526,1
65526,525,1
65530,531,1
65534,535,1
65538,537,1
65542,535,1
65546,532,1
65550,532,1
65554,534,1
65558,538,1
65562,542,1
65566,545,1
65570,546,1
65574,547,1
65578,550,1
65582,554,1
65586,557,1
65590,559,1
65594,559,1
65598,562,1
65602,561,1
65606,553,1
65610,546,1
65614,544,1
65618,543,1
65622,542,1
65626,540,1
65630,541,1
65634,541,1
65638,540,1
65642,535,1
65646,535,1
65650,538,1
65654,541,1
65658,544,1
65662,543,1
65666,536,1
65670,528,1
65674,518,1
65678,507,1
65682,484,1
65686,452,1
65690,439,1
65694,452,1
65698,508,1
65702,615,1
65706,760,1
65710,831,1
65714,766,1
65718,627,1
65722,516,1
65726,470,1
65730,505,1
65734,586,1
65738,639,1
65742,651,1
65746,636,1
65750,595,1
65754,556,1
65758,533,1
65762,522,1
65766,520,1
65770,524,1
65774,526,1
65778,523,1
65782,521,1
65786,519,1
65790,522,1
65794,525,1
65798,528,1
65802,523,1
65806,519,1
65810,518,1
65814,519,1
65818,523,1
65822,526,1
65826,529,1
65830,526,1
65834,526,1
65838,528,1
65842,531,1
65846,529,1
65850,526,1
65854,525,1
65858,528,1
65862,533,1
65866,538,1
65870,542,1
65874,542,1
65878,546,1
65882,553,1
65886,553,1
65890,553,1
65894,557,1
65898,568,1
65902,570,1
65906,562,1
65910,559,1
65914,561,1
65918,570,1
65923,580,1
65927,582,1
65931,584,1
65935,588,1
65939,590,1
65943,592,1
65947,597,1
65951,596,1
65955,590,1
65959,589,1
65963,588,1
65967,585,1
65971,581,1
65975,578,1
65979,572,1
65983,568,1
65987,562,1
65991,557,1
65995,553,1
65999,547,1
66003,543,1
66007,535,1
66011,528,1
66015,525,1
66019,526,1
66023,526,1
66027,526,1
66031,528,1
66035,526,1
66039,522,1
66043,517,1
66047,516,1
66051,519,1
66055,525,1
66059,525,1
66063,519,1
66067,516,1
66071,518,1
66075,522,1
66079,523,1
66083,521,1
66087,519,1
66091,518,1
66095,512,1
66099,512,1
66103,521,1
66107,531,1
66111,526,1
66115,516,1
66119,512,1
66123,520,1
66127,526,1
66131,528,1
66135,526,1
66139,526,1
66143,524,1
66147,524,1
66151,528,1
66155,533,1
66159,528,1
66163,523,1
66167,522,1
66171,523,1
66175,532,1
66179,538,1
66183,536,1
66187,534,1
66191,533,1
66195,536,1
66199,537,1
66203,536,1
66207,535,1
66211,538,1
66215,544,1
66219,550,1
66223,555,1
66227,560,1
66231,566,1
66235,572,1
66239,577,1
66243,570,1
66247,557,1
66251,546,1
66255,543,1
66259,541,1
66263,542,1
66267,540,1
66271,536,1
66275,534,1
66279,529,1
66283,523,1
66287,523,1
66291,530,1
66295,536,1
66299,541,1
66303,533,1
66307,528,1
66311,523,1
66315,522,1
66319,513,1
66323,501,1
66327,493,1
66331,476,1
66335,469,1
66339,474,1
66343,495,1
66347,562,1
66351,687,1
66355,798,1
66359,758,1
66363,618,1
66367,506,1
66371,470,1
66375,506,1
66379,580,1
66383,630,1
66387,639,1
66391,626,1
66395,582,1
66399,541,1
66403,518,1
66407,508,1
66411,502,1
66415,499,1
66419,495,1
66423,490,1
66427,487,1
66431,489,1
66435,494,1
66439,497,1
66443,498,1
66447,500,1
66451,497,1
66455,495,1
66459,495,1
66463,495,1
66467,495,1
66471,497,1
66475,502,1
66479,506,1
66483,509,1
66487,509,1
66491,509,1
66495,508,1
66499,504,1
66503,502,1
66507,514,1
66511,525,1
66515,526,1
66519,522,1
66523,518,1
66527,519,1
66531,521,1
66535,525,1
66539,529,1
66543,533,1
66547,534,1
66551,544,1
66555,553,1
66559,548,1
66563,538,1
66567,534,1
66571,540,1
66575,552,1
66579,560,1
66583,558,1
66587,556,1
66591,562,1
66595,568,1
66599,567,1
66603,566,1
66607,569,1
66611,566,1
66615,556,1
66619,552,1
