timestamp_ms,value,lead_ok
146805,526,1
146805,526,1
146805,526,1
146805,526,1
146805,526,1
146805,526,1
146805,526,1
146805,526,1
146805,526,1
146805,526,1
146809,524,1
146809,524,1
146809,524,1
146809,524,1
146809,524,1
146809,524,1
146809,524,1
146809,524,1
146809,524,1
146809,524,1
146809,524,1
146809,524,1
146809,524,1
146809,524,1
146809,524,1
146809,524,1
146809,524,1
146809,524,1
146809,524,1
146809,524,1
146809,524,1
146809,524,1
146809,524,1
146809,524,1
146809,524,1
146809,524,1
146809,524,1
146809,524,1
146809,524,1
146809,524,1
146809,524,1
146809,524,1
146813,529,1
146817,534,1
146821,536,1
146825,534,1
146829,531,1
146833,528,1
146837,531,1
146841,534,1
146845,535,1
146849,533,1
146853,532,1
146857,533,1
146861,532,1
146865,532,1
146869,533,1
146873,533,1
146877,533,1
146881,533,1
146885,531,1
146889,531,1
146893,533,1
146897,542,1
146901,549,1
146905,553,1
146909,555,1
146913,559,1
146917,560,1
146921,562,1
146925,557,1
146929,547,1
146933,545,1
146937,547,1
146941,545,1
146945,540,1
146949,534,1
146953,532,1
146957,533,1
146961,532,1
146965,526,1
146969,522,1
146973,523,1
146977,528,1
146981,532,1
146985,531,1
146989,528,1
146993,521,1
146997,508,1
147001,492,1
147005,466,1
147009,428,1
147013,388,1
147017,386,1
147021,433,1
147025,520,1
147029,655,1
147033,814,1
147037,879,1
147041,798,1
147045,642,1
147049,530,1
147053,522,1
147057,582,1
147061,637,1
147065,649,1
147069,629,1
147073,586,1
147077,544,1
147081,523,1
147085,513,1
147089,505,1
147093,500,1
147097,498,1
147101,502,1
147105,499,1
147109,494,1
147113,498,1
147117,505,1
147121,506,1
147125,504,1
147129,499,1
147133,501,1
147137,507,1
147141,508,1
147145,504,1
147149,499,1
147153,502,1
147157,508,1
147161,512,1
147165,509,1
147169,506,1
147173,506,1
147177,507,1
147181,514,1
147185,517,1
147189,517,1
147193,519,1
147197,521,1
147201,522,1
147205,522,1
147209,518,1
147213,519,1
147217,523,1
147221,532,1
147225,534,1
147229,536,1
147233,541,1
147237,545,1
147241,547,1
147245,549,1
147249,553,1
147253,557,1
147257,562,1
147261,568,1
147265,572,1
147269,576,1
147273,577,1
147277,579,1
147281,580,1
147285,580,1
147289,577,1
147293,574,1
147297,576,1
147301,573,1
147305,569,1
147309,562,1
147313,556,1
147317,547,1
147321,543,1
147325,535,1
147329,528,1
147333,526,1
147337,526,1
147341,523,1
147345,517,1
147349,514,1
147353,517,1
147357,514,1
147361,512,1
147365,512,1
147369,509,1
147373,512,1
147377,516,1
147381,518,1
147385,517,1
147389,513,1
147393,509,1
147397,510,1
147401,514,1
147405,509,1
147409,504,1
147413,504,1
147417,508,1
147421,512,1
147425,516,1
147429,518,1
147433,517,1
147437,514,1
147441,514,1
147445,513,1
147449,512,1
147453,516,1
147457,517,1
147461,517,1
147465,517,1
147469,516,1
147473,517,1
147477,519,1
147481,521,1
147485,522,1
147489,521,1
147493,521,1
147497,521,1
147501,522,1
147505,526,1
147509,532,1
147513,535,1
147517,535,1
147521,535,1
147525,531,1
147529,531,1
147533,532,1
147537,532,1
147541,534,1
147545,536,1
147549,534,1
147553,532,1
147557,534,1
147561,536,1
147565,535,1
147569,533,1
147573,535,1
147577,535,1
147581,535,1
147585,536,1
147589,536,1
147593,538,1
147597,541,1
147601,544,1
147605,545,1
147609,536,1
147613,535,1
147617,545,1
147621,553,1
147625,559,1
147629,561,1
147633,567,1
147637,564,1
147641,567,1
147645,566,1
147649,560,1
147653,553,1
147657,552,1
147661,553,1
147665,546,1
147669,536,1
147673,535,1
147677,535,1
147681,541,1
147685,544,1
147689,544,1
147693,543,1
147697,542,1
147701,543,1
147705,541,1
147709,535,1
147713,533,1
147717,523,1
147721,508,1
147725,486,1
147729,448,1
147733,404,1
147737,396,1
147741,427,1
147745,497,1
147749,615,1
147753,774,1
147757,897,1
148898,524,1
148902,526,1
148906,528,1
148910,525,1
148914,524,1
148918,525,1
148922,526,1
148926,529,1
148930,528,1
148934,525,1
148938,526,1
148942,528,1
148934,525,1
148938,526,1
148942,528,1
148946,530,1
148950,531,1
148954,533,1
148958,535,1
148962,536,1
148966,538,1
148970,538,1
148974,537,1
148978,542,1
148982,545,1
148986,546,1
148990,547,1
148994,549,1
148998,554,1
149002,561,1
149006,571,1
149010,571,1
149014,567,1
149018,561,1
149022,555,1
149026,553,1
149030,547,1
149034,542,1
149038,537,1
149042,534,1
149046,540,1
149050,544,1
149054,541,1
149058,535,1
149062,533,1
149066,533,1
149070,537,1
149074,540,1
149078,540,1
149082,538,1
149086,535,1
149090,526,1
149094,507,1
149098,488,1
149102,460,1
149106,423,1
149110,401,1
149114,415,1
149118,475,1
149122,590,1
149126,751,1
149130,890,1
149134,882,1
149138,748,1
149142,609,1
149146,562,1
149150,605,1
149154,655,1
149158,665,1
149162,648,1
149166,607,1
149170,557,1
149174,525,1
149178,509,1
149182,504,1
149186,505,1
149190,504,1
149194,502,1
149198,502,1
149202,502,1
149206,502,1
149210,502,1
149214,501,1
149218,502,1
149222,505,1
149226,508,1
149230,512,1
149234,510,1
149238,509,1
149242,509,1
149246,512,1
149250,513,1
149254,512,1
149258,512,1
149262,513,1
149266,516,1
149270,517,1
149274,514,1
149278,514,1
149282,518,1
149286,522,1
149290,522,1
149294,519,1
149298,523,1
149302,532,1
149306,538,1
149310,541,1
149314,538,1
149318,538,1
149322,542,1
149326,547,1
149330,555,1
149334,560,1
149338,562,1
149342,566,1
149346,569,1
149350,574,1
149354,572,1
149358,570,1
149362,573,1
149366,583,1
149370,586,1
149374,583,1
149378,582,1
149382,584,1
149386,584,1
149390,581,1
149394,574,1
149398,567,1
149402,560,1
149406,554,1
149410,547,1
149414,543,1
149418,542,1
149422,536,1
149426,529,1
149430,521,1
149434,519,1
149438,518,1
149442,519,1
149446,518,1
149450,516,1
149454,516,1
149458,517,1
149462,518,1
149466,519,1
149470,518,1
149474,514,1
149478,514,1
149482,518,1
149486,522,1
149490,521,1
149494,516,1
149498,514,1
149502,514,1
149506,513,1
149510,512,1
149514,509,1
149518,507,1
149522,507,1
149526,508,1
149530,513,1
149534,513,1
149538,509,1
149542,513,1
149546,519,1
149550,521,1
149554,519,1
149558,519,1
149562,519,1
149566,523,1
149570,528,1
149574,531,1
149578,531,1
149582,526,1
149586,526,1
149590,526,1
149594,521,1
149598,518,1
149602,521,1
149606,528,1
149610,529,1
149614,526,1
149618,528,1
149622,528,1
149626,531,1
149630,534,1
149634,535,1
149638,534,1
149642,535,1
149646,541,1
149650,545,1
149654,543,1
149658,536,1
149662,533,1
149666,536,1
149670,543,1
149674,547,1
149678,555,1
149682,562,1
149686,567,1
149690,564,1
149694,556,1
149698,553,1
149702,546,1
149706,543,1
149710,543,1
149714,538,1
149718,536,1
149722,536,1
149726,537,1
149730,538,1
149734,537,1
149738,535,1
149742,533,1
149746,532,1
149750,532,1
149754,535,1
149758,541,1
149762,538,1
149766,529,1
149770,514,1
149774,495,1
149778,470,1
149782,436,1
149786,406,1
149790,415,1
149794,466,1
149798,562,1
149802,709,1
149806,846,1
149810,859,1
149814,739,1
149818,597,1
149822,534,1
149826,570,1
149830,632,1
149834,655,1
149838,644,1
149842,609,1
149846,567,1
149850,534,1
149854,516,1
149858,509,1
149862,507,1
149866,508,1
149870,508,1
149874,508,1
149878,508,1
149882,511,1
149886,512,1
149890,512,1
149894,513,1
149898,510,1
149902,513,1
149906,519,1
149910,523,1
149914,521,1
149918,517,1
149922,514,1
149926,512,1
149930,513,1
149934,514,1
149938,516,1
149942,519,1
149946,521,1
149950,519,1
149954,519,1
149958,522,1
149962,523,1
149966,529,1
149970,532,1
149974,534,1
149978,536,1
149982,542,1
149986,545,1
149990,545,1
149994,543,1
149998,544,1
150002,546,1
150006,552,1
150010,553,1
150014,555,1
150018,560,1
150022,567,1
150026,572,1
150030,580,1
150034,581,1
150038,582,1
150042,581,1
150046,582,1
150050,583,1
150054,585,1
150058,585,1
150062,581,1
150066,573,1
150070,569,1
150074,564,1
150078,557,1
150082,552,1
150086,549,1
150090,543,1
150094,532,1
150098,522,1
150102,519,1
150106,519,1
150110,522,1
150114,521,1
150118,519,1
150122,519,1
150126,516,1
150130,509,1
150134,507,1
150138,507,1
150142,507,1
150146,507,1
150150,507,1
150154,508,1
150158,508,1
150162,508,1
150166,507,1
150170,510,1
150174,513,1
150178,513,1
150182,513,1
150186,513,1
150190,513,1
150194,508,1
150198,505,1
150202,505,1
150206,510,1
150210,517,1
150214,521,1
150218,526,1
150222,523,1
150226,521,1
150230,519,1
150234,509,1
150238,506,1
150242,509,1
150246,511,1
150251,517,1
150255,517,1
150259,516,1
150263,516,1
150267,519,1
150271,526,1
150275,528,1
150279,526,1
150283,528,1
150287,532,1
150291,532,1
150295,525,1
150299,521,1
150303,523,1
150307,523,1
150311,525,1
150315,523,1
150319,525,1
150323,528,1
150327,530,1
150331,533,1
150335,533,1
150339,534,1
150343,538,1
150347,541,1
150351,536,1
150355,530,1
150359,529,1
150363,529,1
150367,533,1
150371,536,1
150375,534,1
150379,531,1
150383,528,1
150387,532,1
150391,536,1
150395,538,1
150399,541,1
150403,541,1
150407,541,1
150411,538,1
150415,545,1
150419,550,1
150423,554,1
150427,559,1
150431,562,1
150435,562,1
150439,561,1
150443,558,1
150447,553,1
150451,546,1
150455,541,1
150459,536,1
150463,538,1
150467,540,1
150471,537,1
150475,534,1
150479,533,1
150483,536,1
150487,546,1
150491,554,1
150495,553,1
150499,541,1
150503,526,1
150507,508,1
150511,498,1
150515,488,1
150519,476,1
150523,459,1
150527,417,1
150531,393,1
150535,402,1
150539,449,1
150543,550,1
150547,692,1
150551,848,1
150555,883,1
150559,766,1
150563,615,1
150567,541,1
150571,576,1
150575,637,1
150579,661,1
150583,648,1
150587,607,1
150591,554,1
150595,517,1
150599,502,1
150603,498,1
150607,499,1
150611,502,1
150615,504,1
150619,504,1
150623,501,1
150627,500,1
150631,499,1
150635,497,1
150639,496,1
150643,497,1
150647,499,1
150651,499,1
150655,497,1
150659,496,1
150663,496,1
150667,499,1
150671,501,1
150675,499,1
150679,502,1
150683,505,1
150687,505,1
150691,509,1
150695,512,1
150699,512,1
150703,513,1
150707,513,1
150711,516,1
150715,517,1
150719,518,1
150723,521,1
150727,522,1
150731,524,1
150735,528,1
150739,529,1
150743,529,1
150747,533,1
150751,536,1
150755,542,1
150759,545,1
150763,546,1
150767,552,1
150771,558,1
150775,561,1
150779,562,1
150783,568,1
150787,571,1
150791,571,1
150795,571,1
150799,569,1
150803,569,1
150807,569,1
150811,567,1
150815,562,1
150819,560,1
150823,554,1
150827,549,1
150831,545,1
150835,537,1
150839,532,1
150843,528,1
150847,526,1
150851,525,1
150855,521,1
150859,517,1
150863,514,1
150867,509,1
150871,509,1
150875,509,1
150879,507,1
150883,508,1
150887,509,1
150891,513,1
150895,509,1
150899,506,1
150903,508,1
150907,511,1
150911,514,1
150915,516,1
150919,513,1
150923,508,1
150927,507,1
150931,508,1
150935,507,1
150939,506,1
150943,505,1
150947,508,1
150951,509,1
150955,509,1
150959,508,1
150963,508,1
150967,509,1
150971,513,1
150975,513,1
150979,509,1
150983,507,1
150987,513,1
150991,521,1
150995,522,1
150999,517,1
151003,516,1
151007,517,1
151011,518,1
151015,519,1
151019,521,1
151023,523,1
151027,525,1
151031,526,1
151035,523,1
151039,523,1
151043,526,1
151047,526,1
151051,528,1
151055,528,1
151059,525,1
151063,525,1
151067,530,1
151071,533,1
151075,532,1
151079,528,1
151083,526,1
151087,524,1
151091,526,1
151095,526,1
151099,526,1
151103,528,1
151107,534,1
151111,536,1
151115,537,1
151119,537,1
151123,540,1
151127,542,1
151131,545,1
151135,545,1
151139,544,1
151143,547,1
151147,555,1
151151,565,1
151155,568,1
151159,564,1
151163,559,1
151167,554,1
151171,549,1
151175,544,1
151179,541,1
151183,538,1
151187,534,1
151191,529,1
151195,528,1
151199,530,1
151203,531,1
151207,533,1
151211,536,1
151215,534,1
151219,530,1
151223,528,1
151227,528,1
151231,528,1
151235,522,1
151239,508,1
151243,494,1
151247,470,1
151251,436,1
151255,399,1
151259,401,1
151263,442,1
151267,530,1
151271,665,1
151275,832,1
151279,900,1
151283,798,1
151287,632,1
151291,523,1
151295,531,1
151299,605,1
151303,657,1
151307,665,1
151311,645,1
151315,596,1
151319,543,1
151323,514,1
151327,500,1
151331,499,1
151335,501,1
151339,500,1
151343,499,1
151347,497,1
151351,497,1
151355,501,1
151359,504,1
151363,504,1
151367,504,1
151371,504,1
151375,504,1
151379,499,1
151383,500,1
151387,502,1
151391,504,1
151395,508,1
151399,508,1
151403,508,1
151407,509,1
151411,512,1
151415,508,1
151419,505,1
151423,508,1
151427,512,1
151431,516,1
151435,519,1
151439,520,1
151443,522,1
151447,522,1
151451,526,1
151455,532,1
151459,535,1
151463,536,1
151467,542,1
151471,545,1
151475,547,1
151479,546,1
151483,547,1
151487,556,1
151491,565,1
151495,569,1
151499,570,1
151503,573,1
151507,577,1
151511,578,1
151515,580,1
151519,582,1
151523,583,1
151527,582,1
151531,582,1
151535,581,1
151539,577,1
151543,570,1
151547,566,1
151551,561,1
151555,555,1
151559,547,1
151563,545,1
151567,543,1
151571,537,1
151575,533,1
151579,529,1
151583,530,1
151587,531,1
151591,528,1
151595,524,1
151599,520,1
151603,519,1
151607,523,1
151611,525,1
151615,525,1
151619,519,1
151623,516,1
151627,519,1
151631,523,1
151635,523,1
151639,519,1
151643,517,1
151647,519,1
151651,521,1
151655,522,1
151659,521,1
151663,519,1
151667,519,1
151671,517,1
151675,517,1
151679,517,1
151683,520,1
151687,525,1
151691,529,1
151695,529,1
151699,526,1
151703,525,1
151707,525,1
151711,528,1
151715,531,1
151719,531,1
151723,529,1
151727,528,1
151731,531,1
151735,533,1
151739,533,1
151743,533,1
151747,536,1
151751,538,1
151755,536,1
151759,534,1
151763,534,1
151767,535,1
151771,537,1
151775,541,1
151779,542,1
151783,542,1
151787,544,1
151791,545,1
151795,545,1
151799,543,1
151803,542,1
151807,541,1
151811,543,1
151815,545,1
151819,543,1
151823,543,1
151827,543,1
151831,543,1
151835,545,1
151839,544,1
151843,543,1
151847,546,1
151851,554,1
151855,556,1
151859,552,1
151863,552,1
151867,557,1
151871,569,1
151875,576,1
151879,577,1
151883,579,1
151887,576,1
151891,570,1
151895,567,1
151899,559,1
151903,555,1
151907,554,1
151911,553,1
151915,552,1
151919,545,1
151923,544,1
151927,545,1
151931,545,1
151935,543,1
151939,542,1
151943,538,1
151947,536,1
151951,542,1
151955,544,1
151959,541,1
151963,532,1
151967,518,1
151971,497,1
151975,469,1
151979,424,1
151983,392,1
151987,401,1
151991,458,1
151995,567,1
151999,720,1
152003,890,1
152007,941,1
152011,825,1
152015,668,1
152019,591,1
152023,624,1
152027,680,1
152031,693,1
152035,672,1
152039,620,1
152043,566,1
152047,532,1
152051,517,1
152055,506,1
152059,499,1
152063,499,1
152067,500,1
152071,506,1
152075,507,1
152079,505,1
152083,502,1
152087,502,1
152091,502,1
152095,502,1
152099,501,1
152103,502,1
152107,501,1
152111,502,1
152115,507,1
152119,507,1
152123,504,1
152127,504,1
152131,505,1
152135,508,1
152139,508,1
152143,507,1
152147,512,1
152151,516,1
152155,517,1
152159,518,1
152163,521,1
152167,523,1
152171,525,1
152175,526,1
152179,528,1
152183,529,1
152187,531,1
152191,535,1
152195,542,1
152199,544,1
152203,545,1
152207,547,1
152211,552,1
152215,555,1
152219,560,1
152223,562,1
152227,564,1
152231,564,1
152235,571,1
152239,578,1
152243,580,1
152247,581,1
152251,583,1
152255,580,1
152259,576,1
152263,571,1
152267,570,1
152271,568,1
152275,566,1
152279,557,1
152283,547,1
152287,541,1
152291,536,1
152295,536,1
152299,533,1
152303,526,1
152307,522,1
152311,519,1
152315,518,1
152319,517,1
152323,518,1
152327,518,1
152331,517,1
152335,518,1
152339,517,1
152343,514,1
152347,514,1
152351,512,1
152355,512,1
152359,514,1
152363,516,1
152367,514,1
152371,514,1
152375,514,1
152379,514,1
152383,516,1
152387,518,1
152391,518,1
152395,517,1
152399,514,1
152403,510,1
152407,509,1
152411,514,1
152415,518,1
152419,518,1
152423,517,1
152427,518,1
152431,517,1
152435,518,1
152439,517,1
152443,514,1
152447,514,1
152451,516,1
152455,519,1
152459,523,1
152463,525,1
152467,530,1
152471,534,1
152475,535,1
152479,535,1
152483,534,1
152487,533,1
152491,532,1
152495,534,1
152499,532,1
152503,529,1
152507,533,1
152511,535,1
152515,537,1
152519,533,1
152523,531,1
152527,533,1
152531,535,1
152535,538,1
152539,535,1
152543,533,1
152547,535,1
152552,537,1
152556,536,1
152560,534,1
152564,532,1
152568,533,1
152572,535,1
152576,540,1
152580,540,1
152584,536,1
152588,535,1
152592,536,1
152596,538,1
152600,535,1
152604,535,1
152608,541,1
152612,543,1
152616,543,1
152620,542,1
152624,537,1
152628,538,1
152632,542,1
152636,541,1
152640,541,1
152644,543,1
152648,546,1
152652,546,1
152656,545,1
152660,547,1
152664,553,1
152668,560,1
152672,566,1
152676,567,1
152680,559,1
152684,553,1
152688,556,1
152692,556,1
152696,554,1
152700,552,1
152704,546,1
152708,543,1
152712,537,1
152716,535,1
152720,534,1
152724,532,1
152728,531,1
152732,535,1
152736,538,1
152740,535,1
152744,534,1
152748,535,1
152752,536,1
152756,533,1
152760,521,1
152764,502,1
152768,478,1
152772,441,1
152776,401,1
152780,394,1
152784,432,1
152788,519,1
152792,649,1
152796,814,1
152800,906,1
152804,825,1
152808,670,1
152812,577,1
152816,598,1
152820,663,1
152824,692,1
152828,674,1
152832,627,1
152836,573,1
152840,533,1
152844,513,1
152848,507,1
152852,505,1
152856,504,1
152860,499,1
152864,495,1
152868,493,1
152872,493,1
152876,495,1
152880,497,1
152884,502,1
152888,506,1
152892,505,1
152896,506,1
152900,506,1
152904,505,1
152908,505,1
152912,507,1
152916,508,1
152920,504,1
152924,502,1
152928,504,1
152932,507,1
152936,511,1
152940,509,1
152944,512,1
152948,514,1
152952,516,1
152956,517,1
152960,516,1
152964,514,1
152968,517,1
152972,522,1
152976,528,1
152980,533,1
152984,533,1
152988,535,1
152992,540,1
152996,543,1
153000,545,1
153004,545,1
153008,549,1
153012,555,1
153016,561,1
153020,561,1
153024,558,1
153028,561,1
153032,564,1
153036,569,1
153040,572,1
153044,573,1
153048,574,1
153052,576,1
153056,573,1
153060,567,1
153064,559,1
153068,555,1
153072,555,1
153076,552,1
153080,546,1
153084,540,1
153088,534,1
153092,531,1
153096,531,1
153100,526,1
153104,519,1
153108,509,1
153112,506,1
153116,509,1
153120,512,1
153124,509,1
153128,508,1
153132,509,1
153136,513,1
153140,513,1
153144,509,1
153148,508,1
153152,507,1
153156,509,1
153160,512,1
153164,507,1
153168,506,1
153172,507,1
153176,511,1
153180,512,1
153184,508,1
153188,508,1
153192,508,1
153196,511,1
153200,513,1
153204,512,1
153208,513,1
153212,517,1
153216,519,1
153220,519,1
153224,517,1
153228,517,1
153232,518,1
153236,519,1
153240,520,1
153244,520,1
153248,521,1
153252,523,1
153256,528,1
153260,525,1
153264,521,1
153268,519,1
153272,523,1
153276,529,1
153280,532,1
153284,532,1
153288,532,1
153292,530,1
153296,531,1
153300,531,1
153304,530,1
153308,532,1
153312,534,1
153316,535,1
153320,535,1
153324,532,1
153328,532,1
153332,534,1
153336,536,1
153340,537,1
153344,532,1
153348,530,1
153352,534,1
153356,538,1
153360,538,1
153364,534,1
153368,532,1
153372,533,1
153376,535,1
153380,535,1
153384,533,1
153388,534,1
153392,538,1
153396,542,1
153400,541,1
153404,536,1
153408,535,1
153412,534,1
153416,535,1
153420,536,1
153424,536,1
153428,541,1
153432,545,1
153436,546,1
153440,546,1
153444,543,1
153448,542,1
153452,544,1
153456,553,1
153460,560,1
153464,566,1
153468,569,1
153472,568,1
153476,566,1
153480,562,1
153484,553,1
153488,546,1
153492,546,1
153496,549,1
153500,546,1
153504,542,1
153508,541,1
153512,542,1
153516,542,1
153520,541,1
153524,540,1
153528,538,1
153532,538,1
153536,541,1
153540,538,1
153544,534,1
153548,532,1
153552,523,1
153556,508,1
153560,486,1
153564,448,1
153568,404,1
153572,392,1
153576,415,1
153580,486,1
153584,601,1
153588,756,1
153592,879,1
153596,845,1
153600,698,1
153604,578,1
153608,569,1
153612,636,1
153616,685,1
153620,679,1
153624,642,1
153628,590,1
153632,545,1
153636,522,1
153640,509,1
153644,502,1
153648,500,1
153652,500,1
153656,501,1
153660,501,1
153664,499,1
153668,498,1
153672,498,1
153676,500,1
153680,499,1
153684,497,1
153688,500,1
153692,502,1
153696,506,1
153700,508,1
153704,506,1
153708,505,1
153712,505,1
153716,507,1
153720,509,1
153724,507,1
153728,507,1
153732,509,1
153736,513,1
153740,513,1
153744,512,1
153748,514,1
153752,518,1
153756,521,1
153760,524,1
153764,523,1
153768,526,1
153772,533,1
153776,537,1
153780,536,1
153784,533,1
153788,534,1
153792,541,1
153796,546,1
153800,554,1
153804,556,1
153808,559,1
153812,562,1
153816,566,1
153820,566,1
153824,566,1
153828,571,1
153832,576,1
153836,578,1
153840,579,1
153844,578,1
153848,576,1
153852,569,1
153856,562,1
153860,557,1
153864,554,1
153868,549,1
153872,543,1
153876,538,1
153880,534,1
153884,526,1
153888,523,1
153892,520,1
153896,518,1
153900,516,1
153904,512,1
153908,509,1
153912,509,1
153916,509,1
153920,508,1
153924,505,1
153928,505,1
153932,505,1
153936,505,1
153940,505,1
153944,507,1
153948,508,1
153952,508,1
153956,509,1
153960,508,1
153964,505,1
153968,506,1
153972,510,1
153976,513,1
153980,512,1
153984,508,1
153988,507,1
153992,507,1
153996,512,1
154000,513,1
154004,513,1
154008,514,1
154012,514,1
154016,514,1
154020,516,1
154024,514,1
154028,513,1
154032,513,1
154036,516,1
154040,522,1
154044,522,1
154048,522,1
154052,522,1
154056,522,1
154060,522,1
154064,523,1
154068,526,1
154072,528,1
154076,528,1
154080,529,1
154084,526,1
154088,522,1
154092,522,1
154096,526,1
154100,531,1
154104,531,1
154108,532,1
154112,532,1
154116,532,1
154120,532,1
154124,528,1
154128,528,1
154132,528,1
154136,532,1
154140,534,1
154144,535,1
154148,538,1
154152,540,1
154156,540,1
154160,537,1
154164,532,1
154168,528,1
154172,532,1
154176,540,1
154180,542,1
154184,538,1
154188,536,1
154192,537,1
154196,541,1
154200,541,1
154204,538,1
154208,538,1
154212,540,1
154216,541,1
154220,542,1
154224,540,1
154228,541,1
154232,542,1
154236,543,1
154240,543,1
154244,545,1
154248,552,1
154252,559,1
154256,567,1
154260,568,1
154264,561,1
154268,557,1
154272,555,1
154276,553,1
154280,547,1
154284,545,1
154288,542,1
154292,538,1
154296,536,1
154300,535,1
154304,535,1
154308,535,1
154312,535,1
154316,535,1
154320,535,1
154324,531,1
154328,529,1
154332,533,1
154336,535,1
154340,528,1
154344,508,1
154348,488,1
154352,457,1
154356,415,1
154360,398,1
154364,408,1
154368,466,1
154372,580,1
154376,734,1
154380,865,1
154384,852,1
154388,710,1
154392,565,1
154396,507,1
154400,566,1
154404,644,1
154408,673,1
154412,661,1
154416,621,1
154420,572,1
154424,533,1
154428,514,1
154432,507,1
154436,505,1
154440,505,1
154444,502,1
154448,502,1
154452,502,1
154456,502,1
154460,504,1
154464,507,1
154468,508,1
154472,512,1
154476,509,1
154480,510,1
154484,508,1
154488,508,1
154492,512,1
154496,514,1
154500,514,1
154504,513,1
154508,512,1
154512,512,1
154516,513,1
154520,513,1
154524,513,1
154528,513,1
154532,514,1
154536,520,1
154540,525,1
154544,525,1
154548,526,1
154552,529,1
154556,533,1
154560,535,1
154564,535,1
154568,536,1
154572,537,1
154576,543,1
154580,553,1
154584,560,1
154588,562,1
154592,561,1
154596,561,1
154600,567,1
154604,570,1
154608,573,1
154612,576,1
154616,578,1
154620,582,1
154624,584,1
154628,585,1
154632,586,1
154636,586,1
154640,583,1
154644,577,1
154648,569,1
154652,565,1
154656,558,1
154660,553,1
154664,546,1
154668,542,1
154672,538,1
154676,535,1
154680,533,1
154684,528,1
154688,525,1
154692,524,1
154696,523,1
154700,523,1
154704,522,1
154708,521,1
154712,519,1
154716,521,1
154720,522,1
154724,518,1
154728,514,1
154732,517,1
154736,519,1
154740,521,1
154744,519,1
154748,517,1
154752,517,1
154756,516,1
154760,517,1
154764,516,1
154768,513,1
154772,512,1
154776,513,1
154780,519,1
154784,522,1
154788,521,1
154792,521,1
154796,521,1
154800,522,1
154804,522,1
154808,522,1
154812,522,1
154816,524,1
154820,525,1
154824,525,1
154828,526,1
154832,528,1
154836,531,1
154840,532,1
154844,530,1
154848,530,1
154852,533,1
154856,534,1
154860,534,1
154864,533,1
154868,531,1
154872,532,1
154876,533,1
154880,533,1
154884,532,1
154888,533,1
154892,535,1
154896,538,1
154901,538,1
154905,535,1
154909,534,1
154913,536,1
154917,540,1
154921,542,1
154925,541,1
154929,538,1
154933,538,1
154937,541,1
154941,543,1
154945,545,1
154949,545,1
154953,547,1
154957,549,1
154961,545,1
154965,542,1
154969,538,1
154973,535,1
154977,536,1
154981,538,1
154985,540,1
154989,541,1
154993,541,1
154997,542,1
155001,545,1
155005,546,1
155009,545,1
155013,543,1
155017,543,1
155021,548,1
155025,554,1
155029,560,1
155033,566,1
155037,571,1
155041,574,1
155045,572,1
155049,567,1
155053,561,1
155057,555,1
155061,552,1
155065,547,1
155069,544,1
155073,542,1
155077,538,1
155081,536,1
155085,536,1
155089,537,1
155093,541,1
155097,541,1
155101,541,1
155105,536,1
155109,535,1
155113,535,1
155117,535,1
155121,529,1
155125,514,1
155129,490,1
155133,460,1
155137,414,1
155141,391,1
155145,403,1
155149,461,1
155153,569,1
155157,720,1
155161,872,1
155165,884,1
155169,759,1
155173,621,1
155177,582,1
155181,638,1
155185,691,1
155189,691,1
155193,661,1
155197,609,1
155201,560,1
155205,526,1
155209,512,1
155213,508,1
155217,508,1
155221,508,1
155225,507,1
155229,505,1
155233,504,1
155237,504,1
155241,502,1
155245,500,1
155249,501,1
155253,504,1
155257,506,1
155261,507,1
155265,505,1
155269,505,1
155273,507,1
155277,506,1
155281,508,1
155285,510,1
155289,508,1
155293,509,1
155297,512,1
155301,514,1
155305,514,1
155309,514,1
155313,518,1
155317,519,1
155321,522,1
155325,522,1
155329,522,1
155333,525,1
155337,528,1
155341,532,1
155345,534,1
155349,535,1
155353,540,1
155357,543,1
155361,547,1
155365,552,1
155369,555,1
155373,559,1
155377,562,1
155381,567,1
155385,570,1
155389,572,1
155393,576,1
155397,577,1
155401,580,1
155405,578,1
155409,577,1
155413,580,1
155417,582,1
155421,582,1
155425,574,1
155429,562,1
155433,556,1
155437,552,1
155441,547,1
155445,543,1
155449,536,1
155453,534,1
155457,532,1
155461,529,1
155465,525,1
155469,521,1
155473,519,1
155477,518,1
155481,519,1
155485,518,1
155489,517,1
155493,516,1
155497,514,1
155501,517,1
155505,518,1
155509,513,1
155513,509,1
155517,509,1
155521,513,1
155525,514,1
155529,516,1
155533,518,1
155537,518,1
155541,518,1
155545,516,1
155549,512,1
155553,509,1
155557,509,1
155561,513,1
155565,514,1
155569,514,1
155573,516,1
155577,518,1
155581,521,1
155585,520,1
155589,517,1
155593,518,1
155597,523,1
155601,525,1
155605,525,1
155609,524,1
155613,525,1
155617,525,1
155621,526,1
155625,528,1
155629,525,1
155633,526,1
155637,529,1
155641,533,1
155645,535,1
155649,535,1
155653,535,1
155657,534,1
155661,535,1
155665,535,1
155669,534,1
155673,533,1
155677,535,1
155681,540,1
155685,541,1
155689,540,1
155693,538,1
155697,537,1
155701,538,1
155705,541,1
155709,538,1
155713,542,1
155717,544,1
155721,543,1
155725,542,1
155729,538,1
155733,540,1
155737,538,1
155741,538,1
155745,538,1
155749,535,1
155753,537,1
155757,542,1
155761,546,1
155765,544,1
155769,541,1
155773,542,1
155777,542,1
155781,543,1
155785,545,1
155789,545,1
155793,543,1
155797,542,1
155801,543,1
155805,545,1
155809,545,1
155813,547,1
155817,552,1
155821,549,1
155825,549,1
155829,553,1
155833,556,1
155837,561,1
155841,568,1
155845,572,1
155849,572,1
155853,569,1
155857,567,1
155861,564,1
155865,561,1
155869,555,1
155873,553,1
155877,553,1
155881,547,1
155885,543,1
155889,536,1
155893,536,1
155897,540,1
155901,544,1
155905,545,1
155909,543,1
155913,541,1
155917,541,1
155921,538,1
155925,532,1
155929,518,1
155933,500,1
155937,476,1
155941,439,1
155945,399,1
155949,392,1
155953,430,1
155957,519,1
155961,653,1
155965,814,1
155969,886,1
155973,796,1
155977,650,1
155981,576,1
155985,609,1
155989,674,1
155993,696,1
155997,675,1
156001,628,1
156005,572,1
156009,534,1
156013,518,1
156017,512,1
156021,507,1
156025,504,1
156029,500,1
156033,500,1
156037,504,1
156041,505,1
156045,504,1
156049,502,1
156053,500,1
156057,502,1
156061,506,1
156065,508,1
156069,507,1
156073,506,1
156077,506,1
156081,508,1
156085,509,1
156089,508,1
156093,507,1
156097,508,1
156101,512,1
156105,514,1
156109,514,1
156113,514,1
156117,517,1
156121,519,1
156125,521,1
156129,519,1
156133,518,1
156137,522,1
156141,532,1
156145,535,1
156149,534,1
156153,533,1
156157,534,1
156161,541,1
156165,546,1
156169,549,1
156173,553,1
156177,557,1
156181,562,1
156185,564,1
156189,564,1
156193,569,1
156197,573,1
156201,577,1
156205,577,1
156209,577,1
156213,578,1
156217,577,1
156221,578,1
156225,576,1
156229,570,1
156233,567,1
156237,561,1
156241,557,1
156245,552,1
156249,540,1
156253,533,1
156257,532,1
156261,533,1
156265,533,1
156269,525,1
156273,518,1
156277,514,1
156281,517,1
156285,518,1
156289,516,1
156293,516,1
156297,514,1
156301,514,1
156305,512,1
156309,509,1
156313,510,1
156317,513,1
156321,516,1
156325,513,1
156329,507,1
156333,506,1
156337,508,1
156341,512,1
156345,511,1
156349,508,1
156353,509,1
156357,512,1
156361,516,1
156365,517,1
156369,516,1
156373,514,1
156377,513,1
156381,513,1
156385,514,1
156389,516,1
156393,519,1
156397,519,1
156401,519,1
156405,518,1
156409,518,1
156413,519,1
156417,522,1
156421,523,1
156425,523,1
156429,523,1
156433,525,1
156437,526,1
156441,529,1
156445,530,1
156449,528,1
156453,528,1
156457,529,1
156461,532,1
156465,533,1
156469,534,1
156473,535,1
156477,535,1
156481,534,1
156485,532,1
156489,531,1
156493,533,1
156497,535,1
156501,536,1
156505,538,1
156509,535,1
156513,534,1
156517,536,1
156521,540,1
156525,541,1
156529,538,1
156533,536,1
156537,537,1
156541,540,1
156545,537,1
156549,535,1
156553,536,1
156557,540,1
156561,540,1
156565,538,1
156569,536,1
156573,536,1
156577,542,1
156581,546,1
156585,547,1
156589,543,1
156593,541,1
156597,536,1
156601,535,1
156605,536,1
156609,534,1
156613,534,1
156617,540,1
156621,544,1
156625,546,1
156629,543,1
156633,538,1
156637,542,1
156641,550,1
156645,556,1
156649,560,1
156653,564,1
156657,567,1
156661,562,1
156665,560,1
156669,556,1
156673,553,1
156677,546,1
156681,545,1
156685,545,1
156689,543,1
156693,541,1
156697,542,1
156701,541,1
156705,538,1
156709,533,1
156713,529,1
156717,529,1
156721,535,1
156725,541,1
156729,540,1
156733,533,1
156737,521,1
156741,507,1
156745,490,1
156749,461,1
156753,414,1
156757,391,1
156761,405,1
156765,471,1
156769,582,1
156773,734,1
156777,864,1
156781,846,1
156785,716,1
156789,591,1
156793,572,1
156797,632,1
156801,684,1
156805,685,1
156809,652,1
156813,592,1
156817,542,1
156821,517,1
156825,507,1
156829,500,1
156833,495,1
156837,494,1
156841,495,1
156845,499,1
156849,498,1
156853,498,1
156857,498,1
156861,499,1
156865,501,1
156869,500,1
156873,498,1
156877,497,1
156881,498,1
156885,502,1
156889,505,1
156893,502,1
156897,500,1
156901,505,1
156905,506,1
156909,507,1
156913,506,1
156917,506,1
156921,507,1
156925,511,1
156929,512,1
156933,513,1
156937,516,1
156941,519,1
156945,522,1
156949,522,1
156953,523,1
156957,525,1
156961,526,1
156965,533,1
156969,538,1
156973,543,1
156977,545,1
156981,545,1
156985,547,1
156989,549,1
156993,553,1
156997,559,1
157001,566,1
157005,569,1
157009,569,1
157013,569,1
157017,569,1
157021,572,1
157025,578,1
157029,577,1
157033,574,1
157037,572,1
157041,570,1
157045,566,1
157049,556,1
157053,547,1
157057,543,1
157061,537,1
157065,533,1
157069,525,1
157073,519,1
157077,521,1
157081,523,1
157085,523,1
157089,521,1
157093,517,1
157097,518,1
157101,518,1
157105,519,1
157109,516,1
157113,510,1
157117,509,1
157121,513,1
157125,517,1
157129,517,1
157133,513,1
157137,509,1
157141,511,1
157145,514,1
157149,513,1
157153,508,1
157157,508,1
157161,513,1
157165,514,1
157169,513,1
157173,509,1
157177,508,1
157181,510,1
157185,514,1
157189,513,1
157193,512,1
157197,514,1
157201,519,1
157205,521,1
157209,519,1
157214,517,1
157218,514,1
157222,514,1
157226,519,1
157230,523,1
157234,528,1
157238,529,1
157242,526,1
157246,525,1
157250,528,1
157254,529,1
157258,528,1
157262,531,1
157266,533,1
157270,533,1
157274,533,1
157278,533,1
157282,533,1
157286,532,1
157290,532,1
157294,534,1
157298,535,1
157302,536,1
157306,537,1
157310,538,1
157314,536,1
157318,535,1
157322,536,1
157326,538,1
157330,541,1
157334,536,1
157338,535,1
157342,534,1
157346,536,1
157350,536,1
157354,536,1
157358,542,1
157362,545,1
157366,543,1
157370,540,1
157374,538,1
157378,541,1
157382,542,1
157386,546,1
157390,549,1
157394,546,1
157398,543,1
157402,546,1
157406,548,1
157410,547,1
157414,545,1
157418,546,1
157422,554,1
157426,562,1
157430,567,1
157434,570,1
157438,572,1
157442,570,1
157446,569,1
157450,564,1
157454,555,1
157458,552,1
157462,552,1
157466,553,1
157470,548,1
157474,538,1
157478,533,1
157482,535,1
157486,540,1
157490,543,1
157494,541,1
157498,538,1
157502,538,1
157506,538,1
157510,536,1
157514,534,1
157518,531,1
157522,519,1
157526,502,1
157530,478,1
157534,440,1
157538,405,1
157542,406,1
157546,448,1
157550,531,1
157554,662,1
157558,816,1
157562,868,1
157566,772,1
157570,616,1
157574,521,1
157578,542,1
157582,625,1
157586,680,1
157590,680,1
157594,651,1
157598,598,1
157602,549,1
157606,523,1
157610,511,1
157614,505,1
157618,502,1
157622,505,1
157626,507,1
157630,508,1
157634,509,1
157638,512,1
157642,512,1
157646,508,1
157650,507,1
157654,507,1
157658,508,1
157662,511,1
157666,513,1
157670,509,1
157674,504,1
157678,504,1
157682,508,1
157686,514,1
157690,516,1
157694,516,1
157698,514,1
157702,514,1
157706,518,1
157710,519,1
157714,517,1
157718,518,1
157722,524,1
157726,529,1
157730,528,1
157734,528,1
157738,532,1
157742,536,1
157746,543,1
157750,545,1
157754,545,1
157758,547,1
157762,553,1
157766,559,1
157770,562,1
157774,564,1
157778,569,1
157782,577,1
157786,580,1
157790,582,1
157794,582,1
157798,586,1
157802,586,1
157806,586,1
157810,586,1
157814,586,1
157818,586,1
157822,583,1
157826,579,1
157830,571,1
157834,561,1
157838,554,1
157842,550,1
157846,546,1
157850,542,1
157854,536,1
157858,533,1
157862,532,1
157866,529,1
157870,525,1
157874,523,1
157878,525,1
157882,525,1
157886,524,1
157890,522,1
157894,521,1
157898,519,1
157902,521,1
157906,522,1
157910,521,1
157914,516,1
157918,513,1
157922,514,1
157926,516,1
157930,519,1
157934,519,1
157938,517,1
157942,518,1
157946,521,1
157950,521,1
157954,519,1
157958,519,1
157962,519,1
157966,521,1
157970,522,1
157974,522,1
157978,522,1
157982,523,1
157986,525,1
157990,523,1
157994,522,1
157998,525,1
158002,526,1
158006,528,1
158010,530,1
158014,528,1
158018,526,1
158022,529,1
158026,533,1
158030,535,1
158034,534,1
158038,533,1
158042,534,1
158046,540,1
158050,542,1
158054,541,1
158058,541,1
158062,538,1
158066,541,1
158070,542,1
158074,541,1
158078,538,1
158082,540,1
158086,542,1
158090,541,1
158094,536,1
158098,538,1
158102,543,1
158106,547,1
158110,546,1
158114,542,1
158118,538,1
158122,542,1
158126,545,1
158130,547,1
158134,545,1
158138,544,1
158142,546,1
158146,547,1
158150,547,1
158154,545,1
158158,545,1
158162,545,1
158166,545,1
158170,543,1
158174,541,1
158178,542,1
158182,547,1
158186,550,1
158190,547,1
158194,543,1
158198,542,1
158202,545,1
158206,552,1
158210,552,1
158214,547,1
158218,546,1
158222,547,1
158226,549,1
158230,547,1
158234,547,1
158238,554,1
158242,560,1
158246,567,1
158250,570,1
158254,572,1
158258,570,1
158262,567,1
158266,562,1
158270,557,1
158274,553,1
158278,553,1
158282,554,1
158286,550,1
158290,544,1
158294,542,1
158298,543,1
158302,545,1
158306,544,1
158310,542,1
158314,538,1
158318,538,1
158322,541,1
158326,542,1
158330,541,1
158334,534,1
158338,519,1
158342,500,1
158346,478,1
158350,440,1
158354,396,1
158358,387,1
158362,426,1
158366,514,1
158370,646,1
158374,811,1
158378,907,1
158382,835,1
158386,687,1
158390,601,1
158394,626,1
158398,686,1
158402,710,1
158406,681,1
158410,629,1
158414,571,1
158418,532,1
158422,516,1
158426,507,1
158430,500,1
158434,497,1
158438,495,1
158442,496,1
158446,497,1
158450,496,1
158454,496,1
158458,497,1
158462,499,1
158466,502,1
158470,501,1
158474,499,1
158478,500,1
158482,502,1
158486,506,1
158490,507,1
158494,504,1
158498,500,1
158502,500,1
158506,505,1
158510,507,1
158514,504,1
158518,504,1
158522,505,1
158526,505,1
158530,508,1
158534,513,1
158538,518,1
158542,519,1
158546,522,1
158550,524,1
158554,524,1
158558,525,1
158562,526,1
158566,532,1
158570,535,1
158574,538,1
158578,541,1
158582,547,1
158586,554,1
158590,559,1
158594,561,1
158598,562,1
158602,564,1
158606,567,1
158610,572,1
158614,576,1
158618,577,1
158622,577,1
158626,577,1
158630,578,1
158634,572,1
158638,568,1
158642,567,1
158646,566,1
158650,559,1
158654,547,1
158658,541,1
158662,535,1
158666,529,1
158670,526,1
158674,526,1
158678,526,1
158682,523,1
158686,520,1
158690,517,1
158694,516,1
158698,516,1
158702,514,1
158706,514,1
158710,513,1
158714,513,1
158718,509,1
158722,508,1
158726,512,1
158730,516,1
158734,513,1
158738,511,1
158742,512,1
158746,513,1
158750,512,1
158754,511,1
158758,513,1
158762,512,1
158766,512,1
158770,509,1
158774,509,1
158778,513,1
158782,517,1
158786,517,1
158790,517,1
158794,516,1
158798,514,1
158802,514,1
158806,516,1
158810,519,1
158814,519,1
158818,522,1
158822,525,1
158826,528,1
158830,526,1
158834,522,1
158838,522,1
158842,525,1
158846,530,1
158850,532,1
158854,531,1
158858,529,1
158862,529,1
158866,532,1
158870,533,1
158874,532,1
158878,532,1
158882,533,1
158886,534,1
158890,535,1
158894,534,1
158898,533,1
158902,531,1
158906,532,1
158910,534,1
158914,533,1
158918,531,1
158922,533,1
158926,540,1
158930,543,1
158934,541,1
158938,540,1
158942,541,1
158946,540,1
158950,542,1
158954,541,1
158958,538,1
158962,537,1
158966,540,1
158970,541,1
158974,538,1
158978,538,1
158982,538,1
158986,541,1
158990,542,1
158994,541,1
158998,541,1
159002,538,1
159006,540,1
159010,543,1
159014,543,1
159018,542,1
159022,541,1
159026,538,1
159030,537,1
159034,536,1
159038,540,1
159042,541,1
159046,541,1
159050,542,1
159054,542,1
159058,542,1
159062,542,1
159066,543,1
159070,544,1
159074,542,1
159078,538,1
159082,538,1
159086,538,1
159090,542,1
159094,543,1
159098,544,1
159102,544,1
159106,545,1
159110,547,1
159114,545,1
159118,544,1
159122,548,1
159126,560,1
159130,567,1
159134,566,1
159138,562,1
159142,558,1
159146,555,1
159150,554,1
159154,552,1
159158,546,1
159162,543,1
159166,543,1
159170,543,1
159174,541,1
159178,538,1
159182,541,1
159186,542,1
159190,542,1
159194,536,1
159198,534,1
159202,535,1
159206,540,1
159210,538,1
159214,525,1
159218,508,1
159222,488,1
159226,457,1
159230,413,1
159234,392,1
159238,405,1
159242,466,1
159246,576,1
159250,727,1
159254,873,1
159258,876,1
159262,746,1
159266,616,1
159270,598,1
159274,657,1
159278,706,1
159282,693,1
159286,654,1
159290,595,1
159294,545,1
159298,518,1
159302,507,1
159306,504,1
159310,500,1
159314,497,1
159318,497,1
159322,499,1
159326,500,1
159330,499,1
159334,499,1
159338,499,1
159342,500,1
159346,500,1
159350,504,1
159354,502,1
159358,500,1
159362,499,1
159366,504,1
159370,506,1
159374,505,1
159378,502,1
159382,504,1
159386,507,1
159390,512,1
159394,512,1
159398,509,1
159402,508,1
159406,512,1
159410,517,1
159414,518,1
159418,517,1
159422,518,1
159426,519,1
159430,523,1
159434,523,1
159438,525,1
159442,528,1
159446,533,1
159450,537,1
159454,538,1
159458,541,1
159462,546,1
159466,552,1
159470,556,1
159474,560,1
159478,564,1
159482,569,1
159486,572,1
159490,574,1
159494,576,1
159498,577,1
159502,579,1
159506,579,1
159510,577,1
159514,573,1
159518,568,1
159522,565,1
159526,558,1
159530,553,1
159534,545,1
159538,538,1
159542,535,1
159547,531,1
159551,526,1
159555,523,1
159559,519,1
159563,518,1
159567,517,1
159571,516,1
159575,514,1
159579,513,1
159583,512,1
159587,513,1
159591,514,1
159595,513,1
159599,511,1
159603,508,1
159607,508,1
159611,512,1
159615,513,1
159619,511,1
159623,509,1
159627,508,1
159631,511,1
159635,512,1
159639,509,1
159643,508,1
159647,511,1
159651,512,1
159655,509,1
159659,507,1
159663,508,1
159667,511,1
159671,516,1
159675,517,1
159679,517,1
159683,516,1
159687,516,1
159691,518,1
159695,519,1
159699,521,1
159703,522,1
159707,521,1
159711,522,1
159715,521,1
159719,520,1
159723,521,1
159727,521,1
159731,521,1
159735,523,1
159739,525,1
159743,529,1
159747,533,1
159751,533,1
159755,529,1
159759,528,1
159763,529,1
159767,530,1
159771,534,1
159775,535,1
159779,535,1
159783,534,1
159787,534,1
159791,536,1
159795,535,1
159799,533,1
159803,532,1
159807,532,1
159811,534,1
159815,536,1
159819,537,1
159823,536,1
159827,535,1
159831,536,1
159835,535,1
159839,535,1
159843,536,1
159847,535,1
159851,536,1
159855,536,1
159859,535,1
159863,538,1
159867,538,1
159871,541,1
159875,540,1
159879,536,1
159883,535,1
159887,535,1
159891,537,1
159895,541,1
159899,538,1
159903,537,1
159907,535,1
159911,537,1
159915,540,1
159919,537,1
159923,537,1
159927,538,1
159931,540,1
159935,541,1
159939,541,1
159943,538,1
159947,538,1
159951,540,1
159955,541,1
159959,538,1
159963,541,1
159967,543,1
159971,549,1
159975,553,1
159979,554,1
159983,556,1
159987,560,1
159991,560,1
159995,554,1
159999,545,1
160003,542,1
160007,540,1
160011,540,1
160015,538,1
160019,535,1
160023,535,1
160027,535,1
160031,535,1
160035,535,1
160039,533,1
160043,528,1
160047,528,1
160051,535,1
160055,541,1
160059,537,1
160063,528,1
160067,512,1
160071,495,1
160075,470,1
160079,429,1
160083,397,1
160087,402,1
160091,450,1
160095,548,1
160099,687,1
160103,837,1
160107,860,1
160111,740,1
160115,597,1
160119,538,1
160123,589,1
160127,662,1
160131,689,1
160135,669,1
160139,619,1
160143,562,1
160147,528,1
160151,514,1
160155,505,1
160159,500,1
160163,502,1
160167,505,1
160171,506,1
160175,505,1
160179,500,1
160183,499,1
160187,497,1
160191,499,1
160195,499,1
160199,497,1
160203,497,1
160207,500,1
160211,504,1
160215,504,1
160219,500,1
160223,499,1
160227,501,1
160231,505,1
160235,505,1
160239,502,1
160243,502,1
160247,508,1
160251,517,1
160255,520,1
160259,517,1
160263,513,1
160267,514,1
160271,519,1
160275,521,1
160279,522,1
160283,525,1
160287,528,1
160291,529,1
160295,533,1
160299,536,1
160303,538,1
160307,545,1
160311,550,1
160315,554,1
160319,556,1
160323,562,1
160327,568,1
160331,572,1
160335,570,1
160339,568,1
160343,576,1
160347,582,1
160351,586,1
160355,590,1
160359,586,1
160363,580,1
160367,570,1
160371,565,1
160375,560,1
160379,554,1
160383,549,1
160387,547,1
160391,545,1
160395,541,1
160399,532,1
160403,524,1
160407,522,1
160411,523,1
160415,525,1
160419,521,1
160423,519,1
160427,518,1
160431,518,1
160435,519,1
160439,517,1
160443,516,1
160447,516,1
160451,516,1
160455,518,1
160459,518,1
160463,517,1
160467,516,1
160471,516,1
160475,514,1
160479,514,1
160483,517,1
160487,517,1
160491,517,1
160495,516,1
160499,514,1
160503,513,1
160507,516,1
160511,517,1
160515,518,1
160519,516,1
160523,517,1
160527,521,1
160531,521,1
160535,522,1
160539,521,1
160543,523,1
160547,525,1
160551,525,1
160555,523,1
160559,522,1
160563,526,1
160567,529,1
160571,526,1
160575,524,1
160579,522,1
160583,522,1
160587,522,1
160591,526,1
160595,533,1
160599,534,1
160603,533,1
160607,534,1
160611,536,1
160615,537,1
160619,536,1
160623,535,1
160627,535,1
160631,538,1
160635,538,1
160639,536,1
160643,535,1
160647,535,1
160651,538,1
160655,542,1
160659,535,1
160663,531,1
160667,532,1
160671,538,1
160675,545,1
160679,545,1
160683,542,1
160687,542,1
160691,545,1
160695,546,1
160699,545,1
160703,543,1
160707,546,1
160711,553,1
160715,555,1
160719,556,1
160723,552,1
160727,545,1
160731,542,1
160735,541,1
160739,536,1
160743,538,1
160747,543,1
160751,547,1
160755,550,1
160759,547,1
160763,546,1
160767,546,1
160771,545,1
160775,547,1
160779,554,1
160783,558,1
160787,562,1
160791,569,1
160795,572,1
160799,570,1
160803,569,1
160807,567,1
160811,567,1
160815,567,1
160819,560,1
160823,554,1
160827,547,1
160831,545,1
160835,546,1
160839,547,1
160843,549,1
160847,546,1
160851,546,1
160855,545,1
160859,541,1
160863,543,1
160867,546,1
160871,547,1
160875,545,1
160879,538,1
160883,532,1
160887,519,1
160891,499,1
160895,466,1
160899,426,1
160903,403,1
160907,425,1
160911,493,1
160915,615,1
160919,769,1
160923,878,1
160927,832,1
160931,688,1
160935,579,1
160939,572,1
160943,639,1
160947,692,1
160951,691,1
160955,658,1
160959,604,1
160963,555,1
160967,531,1
160971,519,1
160975,516,1
160979,508,1
160983,506,1
160987,508,1
160991,508,1
160995,508,1
160999,508,1
161003,509,1
161007,509,1
161011,509,1
161015,509,1
161019,507,1
161023,507,1
161027,509,1
161031,509,1
161035,509,1
161039,510,1
161043,512,1
161047,514,1
161051,514,1
161055,514,1
161059,512,1
161063,510,1
161067,516,1
161071,521,1
161075,523,1
161079,523,1
161083,522,1
161087,525,1
161091,528,1
161095,528,1
161099,526,1
161103,529,1
161107,534,1
161111,538,1
161115,545,1
161119,547,1
161123,549,1
161127,554,1
161131,564,1
161135,570,1
161139,570,1
161143,569,1
161147,572,1
161151,579,1
161155,580,1
161159,581,1
161163,580,1
161167,582,1
161171,588,1
161175,589,1
161179,581,1
161183,577,1
161187,570,1
161191,567,1
161195,562,1
161199,553,1
161203,547,1
161207,545,1
161211,545,1
161215,541,1
161219,529,1
161223,522,1
161227,525,1
161231,529,1
161235,528,1
161239,522,1
161243,518,1
161247,514,1
161251,514,1
161255,519,1
161259,517,1
161263,514,1
161267,517,1
161271,519,1
161275,519,1
161279,518,1
161283,516,1
161287,516,1
161291,516,1
161295,512,1
161299,509,1
161303,513,1
161307,516,1
161311,516,1
161315,519,1
161319,518,1
161323,517,1
161327,516,1
161331,517,1
161335,512,1
161339,507,1
161343,507,1
161347,514,1
161351,522,1
161355,528,1
161359,529,1
161363,526,1
161367,521,1
161371,518,1
161375,517,1
161379,517,1
161383,517,1
161387,524,1
161391,533,1
161395,534,1
161399,531,1
161403,526,1
161407,526,1
161411,529,1
161415,532,1
161419,530,1
161423,531,1
161427,535,1
161431,536,1
161435,536,1
161439,537,1
161443,541,1
161447,538,1
161451,536,1
161455,533,1
161459,529,1
161463,532,1
161467,536,1
161471,541,1
161475,543,1
161479,545,1
161483,545,1
161487,543,1
161491,542,1
161495,545,1
161499,543,1
161503,541,1
161507,538,1
161511,542,1
161515,546,1
161519,546,1
161523,541,1
161527,541,1
161531,537,1
161535,538,1
161539,540,1
161543,541,1
161547,540,1
161551,543,1
161555,549,1
161559,550,1
161563,544,1
161567,540,1
161571,541,1
161575,543,1
161579,542,1
161583,543,1
161587,541,1
161591,538,1
161595,540,1
161599,543,1
161603,544,1
161607,544,1
161611,545,1
161615,546,1
161619,545,1
161623,545,1
161627,547,1
161631,547,1
161635,552,1
161639,552,1
161643,547,1
161647,545,1
161651,543,1
161655,546,1
161659,546,1
161663,546,1
161667,549,1
161671,549,1
161675,547,1
161679,549,1
161683,553,1
161687,556,1
161691,561,1
161695,568,1
161699,569,1
161703,564,1
161707,559,1
161711,557,1
161715,555,1
161719,549,1
161723,545,1
161727,547,1
161731,549,1
161735,547,1
161739,544,1
161743,542,1
161747,543,1
161751,542,1
161755,545,1
161759,543,1
161763,536,1
161768,536,1
161772,534,1
161776,523,1
161780,507,1
161784,481,1
161788,438,1
161792,399,1
161796,402,1
161800,447,1
161804,534,1
161808,662,1
161812,811,1
161816,861,1
161820,762,1
161824,624,1
161828,568,1
161832,619,1
161836,685,1
161840,706,1
161844,675,1
161848,625,1
161852,570,1
161856,534,1
161860,516,1
161864,506,1
161868,504,1
161872,507,1
161876,510,1
161880,508,1
161884,504,1
161888,499,1
161892,501,1
161896,506,1
161900,505,1
161904,502,1
161908,504,1
161912,505,1
161916,508,1
161920,508,1
161924,507,1
161928,505,1
161932,506,1
161936,507,1
161940,510,1
161944,513,1
161948,513,1
161952,514,1
161956,513,1
161960,512,1
161964,510,1
161968,513,1
161972,519,1
161976,524,1
161980,526,1
161984,528,1
161988,531,1
161992,534,1
161996,535,1
162000,532,1
162004,528,1
162008,531,1
162012,536,1
162016,544,1
162020,549,1
162024,555,1
162028,561,1
162032,566,1
162036,567,1
162040,570,1
162044,572,1
162048,576,1
162052,578,1
162056,581,1
162060,581,1
162064,579,1
162068,578,1
162072,580,1
162076,580,1
162080,573,1
162084,567,1
162088,560,1
162092,553,1
162096,547,1
162100,543,1
162104,535,1
162108,529,1
162112,526,1
162116,526,1
162120,522,1
162124,517,1
162128,514,1
162132,513,1
162136,513,1
162140,514,1
162144,514,1
162148,514,1
162152,514,1
162156,516,1
162160,513,1
162164,511,1
162168,513,1
162172,513,1
162176,516,1
162180,517,1
162184,516,1
162188,514,1
162192,513,1
162196,513,1
162200,512,1
162204,512,1
162208,512,1
162212,509,1
162216,509,1
162220,509,1
162224,509,1
162228,509,1
162232,514,1
162236,519,1
162240,518,1
162244,514,1
162248,514,1
162252,517,1
162256,518,1
162260,519,1
162264,519,1
162268,521,1
162272,523,1
162276,523,1
162280,522,1
162284,522,1
162288,523,1
162292,528,1
162296,533,1
162300,532,1
162304,526,1
162308,525,1
162312,526,1
162316,531,1
162320,532,1
162324,529,1
162328,529,1
162332,530,1
162336,533,1
162340,534,1
162344,532,1
162348,533,1
162352,534,1
162356,535,1
162360,535,1
162364,533,1
162368,533,1
162372,535,1
162376,538,1
162380,538,1
162384,536,1
162388,535,1
162392,535,1
162396,536,1
162400,538,1
162404,538,1
162408,535,1
162412,535,1
162416,536,1
162420,536,1
162424,535,1
162428,535,1
162432,536,1
162436,540,1
162440,542,1
162444,541,1
162448,542,1
162452,542,1
162456,543,1
162460,542,1
162464,538,1
162468,541,1
162472,542,1
162476,542,1
162480,537,1
162484,535,1
162488,535,1
162492,535,1
162496,535,1
162500,536,1
162504,537,1
162508,538,1
162512,541,1
162516,542,1
162520,543,1
162524,541,1
162528,541,1
162532,538,1
162536,543,1
162540,552,1
162544,555,1
162548,559,1
162552,562,1
162556,562,1
162560,560,1
162564,552,1
162568,546,1
162572,544,1
162576,543,1
162580,545,1
162584,543,1
162588,542,1
162592,541,1
162596,536,1
162600,535,1
162604,534,1
162608,534,1
162612,535,1
162616,535,1
162620,535,1
162624,533,1
162628,531,1
162632,521,1
162636,506,1
162640,488,1
162644,456,1
162648,413,1
162652,396,1
162656,417,1
162660,488,1
162664,603,1
162668,756,1
162672,866,1
162676,824,1
162680,678,1
162684,556,1
162688,540,1
162692,606,1
162696,667,1
162700,678,1
162704,654,1
162708,605,1
162712,554,1
162716,525,1
162720,512,1
162724,506,1
162728,504,1
162732,504,1
162736,504,1
162740,504,1
162744,500,1
162748,498,1
162752,496,1
162756,495,1
162760,499,1
162764,499,1
162768,499,1
162772,500,1
162776,502,1
162780,502,1
162784,500,1
162788,502,1
162792,505,1
162796,507,1
162800,508,1
162804,508,1
162808,508,1
162812,509,1
162816,509,1
162820,511,1
162824,512,1
162828,514,1
162832,517,1
162836,518,1
162840,519,1
162844,521,1
162848,524,1
162852,526,1
162856,528,1
162860,533,1
162864,535,1
162868,541,1
162872,546,1
162876,553,1
162880,556,1
162884,557,1
162888,560,1
162892,566,1
162896,570,1
162900,574,1
162904,576,1
162908,577,1
162912,580,1
162916,581,1
162920,582,1
162924,581,1
162928,580,1
162932,579,1
162936,577,1
162940,570,1
162944,562,1
162948,559,1
162952,555,1
162956,552,1
162960,545,1
162964,535,1
162968,532,1
162972,530,1
162976,526,1
162980,526,1
162984,525,1
162988,523,1
162992,523,1
162996,523,1
163000,522,1
163004,519,1
163008,518,1
163012,517,1
163016,518,1
163020,519,1
163024,517,1
163028,519,1
163032,521,1
163036,521,1
163040,519,1
163044,518,1
163048,517,1
163052,517,1
163056,517,1
163060,517,1
163064,516,1
163068,513,1
163072,512,1
163076,514,1
163080,519,1
163084,519,1
163088,521,1
163092,521,1
163096,521,1
163100,519,1
163104,518,1
163108,521,1
163112,525,1
163116,528,1
163120,528,1
163124,524,1
163128,524,1
163132,528,1
163136,531,1
163140,533,1
163144,532,1
163148,531,1
163152,532,1
163156,533,1
163160,534,1
163164,534,1
163168,535,1
163172,538,1
163176,543,1
163180,544,1
163184,541,1
163188,536,1
163192,534,1
163196,535,1
163200,536,1
163204,537,1
163208,537,1
163212,536,1
163216,542,1
163220,547,1
163224,547,1
163228,546,1
163232,544,1
163236,542,1
163240,542,1
163244,536,1
163248,535,1
163252,538,1
163256,545,1
163260,552,1
163264,550,1
163268,543,1
163272,535,1
163276,536,1
163280,548,1
163284,560,1
163288,562,1
163292,556,1
163296,547,1
163300,541,1
163304,534,1
163308,531,1
163312,532,1
163316,537,1
163320,541,1
163324,538,1
163328,540,1
163332,541,1
163336,542,1
163340,542,1
163344,541,1
163348,540,1
163352,540,1
163356,538,1
163360,543,1
163364,546,1
163368,549,1
163372,553,1
163376,552,1
163380,549,1
163384,549,1
163388,547,1
163392,547,1
163396,552,1
163400,556,1
163404,561,1
163408,564,1
163412,564,1
163416,562,1
163420,557,1
163424,549,1
163428,544,1
163432,541,1
163436,541,1
163440,543,1
163444,541,1
163448,536,1
163452,535,1
163456,538,1
163460,540,1
163464,538,1
163468,542,1
163472,543,1
163476,542,1
163480,538,1
163484,533,1
163488,526,1
163492,511,1
163496,493,1
163500,461,1
163504,410,1
163508,382,1
163512,397,1
163516,461,1
163520,572,1
163524,721,1
163528,864,1
163532,868,1
163536,744,1
163540,615,1
163544,585,1
163548,641,1
163552,693,1
163556,694,1
163560,662,1
163564,606,1
163568,556,1
163572,526,1
163576,513,1
163580,506,1
163584,502,1
163588,499,1
163592,499,1
163596,501,1
163600,507,1
163604,508,1
163608,507,1
163612,506,1
163616,507,1
163620,506,1
163624,502,1
163628,500,1
163632,500,1
163636,502,1
163640,504,1
163644,504,1
163648,502,1
163652,502,1
163656,505,1
163660,507,1
163664,509,1
163668,509,1
163672,514,1
163676,523,1
163680,529,1
163684,525,1
163688,516,1
163692,516,1
163696,518,1
163700,518,1
163704,517,1
163708,521,1
163712,528,1
163716,533,1
163720,536,1
163724,540,1
163728,543,1
163732,545,1
163736,550,1
163740,556,1
163744,562,1
163748,564,1
163752,566,1
163756,567,1
163760,569,1
163764,570,1
163768,576,1
163772,582,1
163776,585,1
163780,579,1
163784,574,1
163788,571,1
163792,567,1
163796,566,1
163800,566,1
163804,561,1
163808,553,1
163812,546,1
163816,540,1
163820,536,1
163824,533,1
163828,526,1
163832,526,1
163836,528,1
163840,522,1
163844,516,1
163848,514,1
163852,516,1
163856,519,1
163860,519,1
163864,516,1
163868,513,1
163872,512,1
163876,513,1
163880,517,1
163884,517,1
163888,514,1
163892,511,1
163896,509,1
163900,509,1
163904,513,1
163908,517,1
163912,517,1
163916,514,1
163920,513,1
163924,508,1
163928,508,1
163932,512,1
163936,512,1
163940,512,1
163944,511,1
163948,512,1
163952,514,1
163956,518,1
163960,517,1
163964,513,1
163968,514,1
163972,518,1
163976,522,1
163980,523,1
163984,522,1
163988,518,1
163992,522,1
163996,533,1
164000,537,1
164004,535,1
164008,526,1
164012,519,1
164016,517,1
164020,521,1
164024,525,1
164028,528,1
164032,530,1
164036,531,1
164040,534,1
164045,533,1
164049,532,1
164053,535,1
164057,536,1
164061,536,1
164065,536,1
164069,536,1
164073,538,1
164077,542,1
164081,543,1
164085,538,1
164089,534,1
164093,532,1
164097,532,1
164101,535,1
164105,535,1
164109,535,1
164113,535,1
164117,536,1
164121,541,1
164125,542,1
164129,542,1
164133,538,1
164137,536,1
164141,541,1
164145,543,1
164149,545,1
164153,542,1
164157,536,1
164161,533,1
164165,534,1
164169,532,1
164173,536,1
164177,543,1
164181,546,1
164185,543,1
164189,541,1
164193,541,1
164197,541,1
164201,541,1
164205,542,1
164209,542,1
164213,546,1
164217,550,1
164221,546,1
164225,542,1
164229,540,1
164233,537,1
164237,536,1
164241,538,1
164245,541,1
164249,543,1
164253,543,1
164257,541,1
164261,538,1
164265,536,1
164269,534,1
164273,538,1
164277,549,1
164281,554,1
164285,547,1
164289,543,1
164293,542,1
164297,545,1
164301,555,1
164305,566,1
164309,566,1
164313,557,1
164317,552,1
164321,547,1
164325,545,1
164329,543,1
164333,545,1
164337,543,1
164341,538,1
164345,538,1
164349,538,1
164353,538,1
164357,534,1
164361,528,1
164365,525,1
164369,523,1
164373,533,1
164377,538,1
164381,533,1
164385,513,1
164389,489,1
164393,461,1
164397,416,1
164401,389,1
164405,397,1
164409,447,1
164413,544,1
164417,678,1
164421,833,1
164425,865,1
164429,750,1
164433,616,1
164437,572,1
164441,629,1
164445,689,1
164449,693,1
164453,662,1
164457,605,1
164461,555,1
164465,524,1
164469,511,1
164473,506,1
164477,504,1
164481,504,1
164485,500,1
164489,497,1
164493,497,1
164497,500,1
164501,501,1
164505,500,1
164509,496,1
164513,495,1
164517,496,1
164521,496,1
164525,495,1
164529,495,1
164533,500,1
164537,507,1
164541,508,1
164545,506,1
164549,502,1
164553,500,1
164557,504,1
164561,510,1
164565,512,1
164569,506,1
164573,502,1
164577,505,1
164581,514,1
164585,518,1
164589,514,1
164593,518,1
164597,522,1
164601,524,1
164605,526,1
164609,526,1
164613,531,1
164617,534,1
164621,541,1
164625,545,1
164629,545,1
164633,547,1
164637,554,1
164641,562,1
164645,568,1
164649,567,1
164653,566,1
164657,567,1
164661,570,1
164665,573,1
164669,572,1
164673,572,1
164677,572,1
164681,571,1
164685,570,1
164689,567,1
164693,562,1
164697,556,1
164701,552,1
164705,543,1
164709,532,1
164713,528,1
164717,529,1
164721,532,1
164725,531,1
164729,523,1
164733,518,1
164737,516,1
164741,517,1
164745,518,1
164749,517,1
164753,514,1
164757,512,1
164761,512,1
164765,516,1
164769,517,1
164773,514,1
164777,509,1
164781,506,1
164785,507,1
164789,509,1
164793,514,1
164797,513,1
164801,513,1
164805,513,1
164809,514,1
164813,516,1
164817,514,1
164821,514,1
164825,514,1
164829,511,1
164833,512,1
164837,514,1
164841,517,1
164845,519,1
164849,516,1
164853,514,1
164857,517,1
164861,519,1
164865,519,1
164869,517,1
164873,516,1
164877,517,1
164881,523,1
164885,526,1
164889,523,1
164893,523,1
164897,525,1
164901,526,1
164905,526,1
164909,525,1
164913,528,1
164917,531,1
164921,528,1
164925,529,1
164929,532,1
164933,532,1
164937,534,1
164941,540,1
164945,541,1
164949,535,1
164953,535,1
164957,535,1
164961,535,1
164965,536,1
164969,535,1
164973,535,1
164977,535,1
164981,537,1
164985,536,1
164989,535,1
164993,535,1
164997,536,1
165001,537,1
165005,537,1
165009,536,1
165013,538,1
165017,542,1
165021,542,1
165025,541,1
165029,536,1
165033,536,1
165037,538,1
165041,538,1
165045,538,1
165049,537,1
165053,542,1
165057,545,1
165061,546,1
165065,544,1
165069,541,1
165073,536,1
165077,537,1
165081,540,1
165085,541,1
165089,540,1
165093,538,1
165097,542,1
165101,543,1
165105,542,1
165109,540,1
165113,536,1
165117,538,1
165121,541,1
165125,542,1
165129,541,1
165133,536,1
165137,535,1
165141,536,1
165145,538,1
165149,537,1
165153,538,1
165157,543,1
165161,547,1
165165,546,1
165169,542,1
165173,541,1
165177,543,1
165181,546,1
165185,545,1
165189,542,1
165193,545,1
165197,552,1
165201,554,1
165205,556,1
165209,560,1
165213,556,1
165217,549,1
165221,546,1
165225,546,1
165229,545,1
165233,542,1
165237,538,1
165241,536,1
165245,537,1
165249,536,1
165253,535,1
165257,536,1
165261,538,1
165265,541,1
165269,537,1
165273,535,1
165277,532,1
165281,528,1
165285,521,1
165289,507,1
165293,484,1
165297,452,1
165301,411,1
165305,389,1
165309,403,1
165313,476,1
165317,598,1
165321,754,1
165325,867,1
165329,822,1
165333,678,1
165337,561,1
165341,546,1
165345,615,1
165349,677,1
165353,689,1
165357,664,1
165361,610,1
165365,560,1
165369,526,1
165373,512,1
165377,502,1
165381,502,1
165385,505,1
165389,506,1
165393,505,1
165397,505,1
165401,506,1
165405,508,1
165409,507,1
165413,502,1
165417,501,1
165421,502,1
165425,502,1
165429,504,1
165433,505,1
165437,507,1
165441,507,1
165445,504,1
165449,499,1
165453,499,1
165457,506,1
165461,509,1
165465,512,1
165469,509,1
165473,509,1
165477,513,1
165481,518,1
165485,522,1
165489,522,1
165493,522,1
165497,523,1
165501,525,1
165505,528,1
165509,531,1
165513,535,1
165517,542,1
165521,545,1
165525,543,1
165529,543,1
165533,546,1
165537,553,1
165541,561,1
165545,567,1
165549,566,1
165553,562,1
165557,568,1
165561,573,1
165565,580,1
165569,582,1
165573,582,1
165577,581,1
165581,582,1
165585,582,1
165589,578,1
165593,570,1
165597,566,1
165601,562,1
165605,561,1
165609,554,1
165613,545,1
165617,542,1
165621,540,1
165625,537,1
165629,533,1
165633,528,1
165637,528,1
165641,528,1
165645,525,1
165649,519,1
165653,519,1
165657,522,1
165661,526,1
165665,526,1
165669,523,1
165673,519,1
165677,519,1
165681,521,1
165685,521,1
165689,521,1
165693,517,1
165697,514,1
165701,513,1
165705,514,1
165709,516,1
165713,518,1
165717,521,1
165721,522,1
165725,522,1
165729,518,1
165733,516,1
165737,517,1
165741,522,1
165745,525,1
165749,522,1
165753,519,1
165757,519,1
165761,521,1
165765,522,1
165769,523,1
165773,526,1
165777,528,1
165781,526,1
165785,529,1
165789,532,1
165793,532,1
165797,533,1
165801,534,1
165805,534,1
165809,534,1
165813,533,1
165817,533,1
165821,535,1
165825,536,1
165829,535,1
165833,537,1
165837,538,1
165841,537,1
165845,541,1
165849,542,1
165853,542,1
165857,543,1
165861,543,1
165865,543,1
165869,542,1
165873,540,1
165877,538,1
165881,541,1
165885,543,1
165889,543,1
165893,541,1
165897,541,1
165901,544,1
165905,546,1
165909,547,1
165913,544,1
165917,541,1
165921,541,1
165925,542,1
165929,542,1
165933,543,1
165937,545,1
165941,546,1
165945,546,1
165949,545,1
165953,545,1
165957,546,1
165961,547,1
165965,548,1
165969,541,1
165973,535,1
165977,538,1
165981,542,1
165985,545,1
165989,546,1
165993,549,1
165997,549,1
166001,548,1
166005,547,1
166009,545,1
166013,545,1
166017,544,1
166021,541,1
166025,540,1
166029,544,1
166033,547,1
166037,548,1
166041,547,1
166045,547,1
166049,545,1
166053,545,1
166057,547,1
166061,552,1
166065,555,1
166069,556,1
166073,561,1
166077,565,1
166081,564,1
166085,564,1
166089,561,1
166093,556,1
166097,554,1
166101,553,1
166105,549,1
166109,546,1
166113,542,1
166117,542,1
166121,541,1
166125,541,1
166129,542,1
166133,542,1
166137,543,1
166141,543,1
166145,543,1
166149,542,1
166153,541,1
166157,532,1
166161,517,1
166165,496,1
166169,466,1
166173,414,1
166177,381,1
166181,393,1
166186,447,1
166190,543,1
166194,678,1
166198,844,1
166202,898,1
166206,795,1
166210,649,1
166214,589,1
166218,636,1
166222,693,1
166226,708,1
166230,673,1
166234,617,1
166238,561,1
166242,528,1
166246,517,1
166250,508,1
166254,502,1
166258,502,1
166262,502,1
166266,505,1
166270,507,1
166274,502,1
166278,500,1
166282,505,1
166286,509,1
166290,509,1
166294,506,1
166298,505,1
166302,505,1
166306,506,1
166310,507,1
166314,506,1
166318,507,1
166322,506,1
166326,507,1
166330,511,1
166334,512,1
166338,513,1
166342,513,1
166346,513,1
166350,513,1
166354,513,1
166358,514,1
166362,517,1
166366,521,1
166370,521,1
166374,520,1
166378,522,1
166382,525,1
166386,532,1
166390,534,1
166394,534,1
166398,537,1
166402,542,1
166406,543,1
166410,545,1
166414,553,1
166418,562,1
166422,568,1
166426,572,1
166430,572,1
166434,570,1
166438,568,1
166442,569,1
166446,571,1
166450,577,1
166454,580,1
166458,581,1
166462,578,1
166466,571,1
166470,566,1
166474,556,1
166478,549,1
166482,547,1
166486,545,1
166490,541,1
166494,532,1
166498,525,1
166502,524,1
166506,521,1
166510,521,1
166514,519,1
166518,519,1
166522,517,1
166526,518,1
166530,514,1
166534,511,1
166538,510,1
166542,513,1
166546,517,1
166550,516,1
166554,512,1
166558,513,1
166562,513,1
166566,514,1
166570,513,1
166574,508,1
166578,508,1
166582,513,1
166586,516,1
166590,516,1
166594,514,1
166598,512,1
166602,512,1
166606,513,1
166610,513,1
166614,508,1
166618,507,1
166622,508,1
166626,514,1
166630,517,1
166634,514,1
166638,513,1
166642,516,1
166646,520,1
166650,519,1
166654,517,1
166658,519,1
166662,522,1
166666,522,1
166670,521,1
166674,522,1
166678,525,1
166682,528,1
166686,532,1
166690,535,1
166694,533,1
166698,532,1
166702,529,1
166706,532,1
166710,534,1
166714,534,1
166718,532,1
166722,532,1
166726,533,1
166730,535,1
166734,537,1
166738,538,1
166742,538,1
166746,538,1
166750,536,1
166754,534,1
166758,533,1
166762,533,1
166766,535,1
166770,541,1
166774,542,1
166778,542,1
166782,542,1
166786,542,1
166790,542,1
166794,538,1
166798,535,1
166802,534,1
166806,538,1
166810,543,1
166814,543,1
166818,541,1
166822,537,1
166826,538,1
166830,536,1
166834,535,1
166838,535,1
166842,533,1
166846,534,1
166850,537,1
166854,538,1
166858,540,1
166862,542,1
166866,544,1
166870,543,1
166874,541,1
166878,536,1
166882,536,1
166886,540,1
166890,544,1
166894,544,1
166898,542,1
166902,538,1
166906,540,1
166910,542,1
166914,541,1
166918,536,1
166922,538,1
166926,541,1
166930,543,1
166934,541,1
166938,538,1
166942,538,1
166946,542,1
166950,546,1
166954,543,1
166958,541,1
166962,542,1
166966,545,1
166970,549,1
166974,546,1
166978,542,1
166982,543,1
166986,545,1
166990,549,1
166994,552,1
166998,555,1
167002,559,1
167006,561,1
167010,562,1
167014,560,1
167018,554,1
167022,552,1
167026,549,1
167030,545,1
167034,542,1
167038,541,1
167042,541,1
167046,541,1
167050,538,1
167054,537,1
167058,541,1
167062,543,1
167066,543,1
167070,542,1
167074,537,1
167078,534,1
167082,530,1
167086,519,1
167090,505,1
167094,483,1
167098,442,1
167102,396,1
167106,387,1
167110,415,1
167114,495,1
167118,614,1
167122,772,1
167126,889,1
167130,841,1
167134,697,1
167138,596,1
167142,608,1
167146,674,1
167150,712,1
167154,689,1
167158,638,1
167162,580,1
167166,540,1
167170,519,1
167174,507,1
167178,502,1
167182,499,1
167186,502,1
167190,505,1
167194,502,1
167198,502,1
167202,504,1
167206,501,1
167210,497,1
167214,496,1
167218,502,1
167222,507,1
167226,507,1
167230,507,1
167234,504,1
167238,502,1
167242,502,1
167246,505,1
167250,505,1
167254,504,1
167258,506,1
167262,507,1
167266,508,1
167270,512,1
167274,513,1
167278,509,1
167282,507,1
167286,509,1
167290,518,1
167294,522,1
167298,523,1
167302,525,1
167306,526,1
167310,531,1
167314,532,1
167318,536,1
167322,542,1
167326,545,1
167330,546,1
167334,545,1
167338,547,1
167342,553,1
167346,560,1
167350,567,1
167354,569,1
167358,571,1
167362,571,1
167366,571,1
167370,571,1
167374,573,1
167378,577,1
167382,578,1
167386,578,1
167390,577,1
167394,572,1
167398,567,1
167402,561,1
167406,557,1
167410,552,1
167414,542,1
167418,535,1
167422,534,1
167426,532,1
167430,526,1
167434,523,1
167438,523,1
167442,522,1
167446,522,1
167450,522,1
167454,519,1
167458,516,1
167462,513,1
167466,517,1
167470,517,1
167474,513,1
167478,513,1
167482,516,1
167486,517,1
167490,519,1
167494,518,1
167498,518,1
167502,518,1
167506,518,1
167510,517,1
167514,514,1
167518,513,1
167522,509,1
167526,508,1
167530,508,1
167534,511,1
167538,513,1
167542,514,1
167546,516,1
167550,517,1
167554,517,1
167558,516,1
167562,517,1
167566,517,1
167570,517,1
167574,519,1
167578,519,1
167582,522,1
167586,523,1
167590,524,1
167594,521,1
167598,520,1
167602,522,1
167606,525,1
167610,524,1
167614,523,1
167618,526,1
167622,529,1
167626,532,1
167630,534,1
167634,533,1
167638,532,1
167642,532,1
167646,532,1
167650,533,1
167654,531,1
167658,531,1
167662,534,1
167666,535,1
167670,535,1
167674,535,1
167678,537,1
167682,538,1
167686,536,1
167690,536,1
167694,535,1
167698,533,1
167702,533,1
167706,533,1
167710,535,1
167714,535,1
167718,535,1
167722,536,1
167726,536,1
167730,538,1
167734,541,1
167738,540,1
167742,538,1
167746,537,1
167750,537,1
167754,537,1
167758,540,1
167762,541,1
167766,542,1
167770,542,1
167774,537,1
167778,536,1
167782,536,1
167786,538,1
167790,540,1
167794,536,1
167798,534,1
167802,532,1
167806,532,1
167810,536,1
167814,538,1
167818,540,1
167822,538,1
167826,538,1
167830,541,1
167834,538,1
167838,535,1
167842,535,1
167846,535,1
167850,535,1
167854,534,1
167858,534,1
167862,537,1
167866,542,1
167870,542,1
167874,538,1
167878,538,1
167882,538,1
167886,535,1
167890,533,1
167894,540,1
167898,550,1
167902,558,1
167906,562,1
167910,566,1
167914,561,1
167918,561,1
167922,560,1
167926,555,1
167930,553,1
167934,547,1
167938,547,1
167942,547,1
167946,544,1
167950,542,1
167954,542,1
167958,541,1
167962,538,1
167966,538,1
167970,542,1
167974,543,1
167978,542,1
167982,538,1
167986,533,1
167990,525,1
167994,512,1
167998,490,1
168002,466,1
168006,430,1
168010,396,1
168014,399,1
168018,442,1
168022,533,1
168026,667,1
168030,822,1
168034,869,1
168038,765,1
168042,616,1
168046,534,1
168050,568,1
168054,642,1
168058,680,1
168062,674,1
168066,639,1
168070,586,1
168074,543,1
168078,521,1
168082,509,1
168086,505,1
168090,505,1
168094,505,1
168098,504,1
168102,504,1
168106,502,1
168110,502,1
168114,502,1
168118,502,1
168122,504,1
168126,504,1
168130,506,1
168134,509,1
168138,509,1
168142,507,1
168146,505,1
168150,507,1
168154,509,1
168158,508,1
168162,507,1
168166,508,1
168170,508,1
168174,506,1
168178,507,1
168182,516,1
168186,522,1
168190,523,1
168194,522,1
168198,522,1
168202,526,1
168206,529,1
168210,532,1
168214,534,1
168218,534,1
168222,535,1
168226,538,1
168230,543,1
168234,544,1
168238,546,1
168243,549,1
168247,556,1
168251,562,1
168255,567,1
168259,569,1
168263,576,1
168267,580,1
168271,581,1
168275,582,1
168279,581,1
168283,582,1
168287,585,1
168291,588,1
168295,586,1
168299,580,1
168303,571,1
168307,565,1
168311,560,1
168315,556,1
168319,552,1
168323,546,1
168327,543,1
168331,536,1
168335,532,1
168339,528,1
168343,528,1
168347,528,1
168351,528,1
168355,525,1
168359,523,1
168363,523,1
168367,522,1
168371,523,1
168375,523,1
168379,522,1
168383,520,1
168387,518,1
168391,519,1
168395,521,1
168399,522,1
168403,521,1
168407,518,1
168411,514,1
168415,512,1
168419,513,1
168423,518,1
168427,522,1
168431,521,1
168435,518,1
168439,516,1
168443,516,1
168447,517,1
168451,518,1
168455,519,1
168459,521,1
168463,521,1
168467,521,1
168471,521,1
168475,523,1
168479,524,1
168483,523,1
168487,520,1
168491,520,1
168495,523,1
168499,526,1
168503,528,1
168507,529,1
168511,533,1
168515,532,1
168519,530,1
168523,531,1
168527,532,1
168531,535,1
168535,536,1
168539,536,1
168543,538,1
168547,541,1
168551,541,1
168555,541,1
168559,535,1
168563,535,1
168567,541,1
168571,544,1
168575,542,1
168579,536,1
168583,537,1
168587,540,1
168591,542,1
168595,543,1
168599,541,1
168603,538,1
168607,542,1
168611,545,1
168615,545,1
168619,546,1
168623,547,1
168627,547,1
168631,545,1
168635,543,1
168639,542,1
168643,542,1
168647,545,1
168651,546,1
168655,545,1
168659,543,1
168663,545,1
168667,545,1
168671,545,1
168675,543,1
168679,540,1
168683,540,1
168687,543,1
168691,547,1
168695,547,1
168699,545,1
168703,543,1
168707,541,1
168711,542,1
168715,544,1
168719,545,1
168723,546,1
168727,547,1
168731,552,1
168735,549,1
168739,543,1
168743,543,1
168747,549,1
168751,554,1
168755,553,1
168759,546,1
168763,543,1
168767,552,1
168771,560,1
168775,558,1
168779,555,1
168783,555,1
168787,557,1
168791,556,1
168795,556,1
168799,556,1
168803,556,1
168807,557,1
168811,555,1
168815,552,1
168819,544,1
168823,541,1
168827,538,1
168831,543,1
168835,545,1
168839,543,1
168843,541,1
168847,541,1
168851,542,1
168855,541,1
168859,536,1
168863,534,1
168867,533,1
168871,528,1
168875,517,1
168879,495,1
168883,460,1
168887,411,1
168891,387,1
168895,401,1
168899,458,1
168903,566,1
168907,712,1
168911,864,1
168915,879,1
168919,756,1
168923,619,1
168927,585,1
168931,642,1
168935,696,1
168939,696,1
168943,663,1
168947,609,1
168951,561,1
168955,532,1
168959,517,1
168963,508,1
168967,505,1
168971,504,1
168975,502,1
168979,500,1
168983,501,1
168987,498,1
168991,501,1
168995,506,1
168999,507,1
169003,505,1
169007,499,1
169011,499,1
169015,500,1
169019,501,1
169023,505,1
169027,508,1
169031,507,1
169035,506,1
169039,502,1
169043,502,1
169047,507,1
169051,507,1
169055,507,1
169059,509,1
169063,516,1
169067,518,1
169071,519,1
169075,519,1
169079,517,1
169083,517,1
169087,519,1
169091,522,1
169095,525,1
169099,531,1
169103,536,1
169107,541,1
169111,542,1
169115,544,1
169119,547,1
169123,553,1
169127,556,1
169131,561,1
169135,566,1
169139,567,1
169143,567,1
169147,568,1
169151,572,1
169155,577,1
169159,577,1
169163,577,1
169167,580,1
169171,584,1
169175,581,1
169179,577,1
169183,568,1
169187,560,1
169191,554,1
169195,552,1
169199,547,1
169203,543,1
169207,541,1
169211,534,1
169215,531,1
169219,526,1
169223,523,1
169227,522,1
169231,521,1
169235,519,1
169239,516,1
169243,513,1
169247,514,1
169251,518,1
169255,519,1
169259,517,1
169263,514,1
169267,514,1
169271,516,1
169275,517,1
169279,513,1
169283,508,1
169287,509,1
169291,514,1
169295,518,1
169299,516,1
169303,517,1
169307,516,1
169311,517,1
169315,516,1
169319,516,1
169323,516,1
169327,517,1
169331,518,1
169335,518,1
169339,516,1
169343,514,1
169347,517,1
169351,519,1
169355,522,1
169359,523,1
169363,524,1
169367,523,1
169371,523,1
169375,525,1
169379,525,1
169383,526,1
169387,525,1
169391,526,1
169395,528,1
169399,529,1
169403,529,1
169407,528,1
169411,530,1
169415,534,1
169419,537,1
169423,535,1
169427,529,1
169431,529,1
169435,537,1
169439,545,1
169443,545,1
169447,542,1
169451,538,1
169455,534,1
169459,531,1
169463,532,1
169467,535,1
169471,540,1
169475,541,1
169479,535,1
169483,534,1
169487,537,1
169491,541,1
169495,542,1
169499,538,1
169503,540,1
169507,542,1
169511,544,1
169515,544,1
169519,540,1
169523,536,1
169527,535,1
169531,540,1
169535,545,1
169539,545,1
169543,544,1
169547,543,1
169551,542,1
169555,542,1
169559,542,1
169563,542,1
169567,543,1
169571,543,1
169575,546,1
169579,546,1
169583,542,1
169587,538,1
169591,542,1
169595,545,1
169599,546,1
169603,544,1
169607,543,1
169611,545,1
169615,545,1
169619,542,1
169623,541,1
169627,542,1
169631,545,1
169635,550,1
169639,547,1
169643,543,1
169647,542,1
169651,543,1
169655,545,1
169659,547,1
169663,545,1
169667,546,1
169671,555,1
169675,561,1
169679,562,1
169683,558,1
169687,557,1
169691,556,1
169695,553,1
169699,547,1
169703,545,1
169707,545,1
169711,545,1
169715,545,1
169719,541,1
169723,536,1
169727,535,1
169731,540,1
169735,541,1
169739,540,1
169743,540,1
169747,542,1
169751,543,1
169755,541,1
169759,533,1
169763,519,1
169767,502,1
169771,477,1
169775,438,1
169779,393,1
169783,391,1
169787,432,1
169791,521,1
169795,652,1
169799,817,1
169803,897,1
169807,810,1
169811,660,1
169815,580,1
169819,615,1
169823,679,1
169827,708,1
169831,679,1
169835,627,1
169839,568,1
169843,531,1
169847,516,1
169851,508,1
169855,504,1
169859,499,1
169863,499,1
169867,505,1
169871,507,1
169875,505,1
169879,502,1
169883,502,1
169887,505,1
169891,505,1
169895,502,1
169899,502,1
169903,504,1
169907,506,1
169911,506,1
169915,507,1
169919,505,1
169923,502,1
169927,505,1
169931,508,1
169935,510,1
169939,509,1
169943,509,1
169947,512,1
169951,513,1
169955,512,1
169959,507,1
169963,507,1
169967,513,1
169971,519,1
169975,523,1
169979,522,1
169983,525,1
169987,526,1
169991,533,1
169995,540,1
169999,542,1
170003,543,1
170007,545,1
170011,549,1
170015,556,1
170019,559,1
170023,557,1
170027,560,1
170031,562,1
170035,570,1
170039,572,1
170043,574,1
170047,577,1
170051,580,1
170055,582,1
170059,580,1
170063,574,1
170067,569,1
170071,562,1
170075,560,1
170079,555,1
170083,552,1
170087,544,1
170091,541,1
170095,536,1
170099,532,1
170103,529,1
170107,526,1
170111,523,1
170115,522,1
170119,518,1
170123,514,1
170127,513,1
170131,514,1
170135,514,1
170139,514,1
170143,514,1
170147,514,1
170151,514,1
170155,513,1
170159,513,1
170163,514,1
170167,517,1
170171,516,1
170175,514,1
170179,509,1
170183,506,1
170187,506,1
170191,508,1
170195,513,1
170199,516,1
170203,517,1
170207,516,1
170211,514,1
170215,516,1
170219,514,1
170223,513,1
170227,516,1
170231,517,1
170235,519,1
170239,519,1
170243,518,1
170247,519,1
170251,521,1
170255,523,1
170259,523,1
170263,521,1
170267,521,1
170271,523,1
170275,524,1
170279,523,1
170283,523,1
170287,526,1
170291,530,1
170295,528,1
170299,525,1
170303,524,1
170308,526,1
170312,531,1
170316,534,1
170320,535,1
170324,533,1
170328,533,1
170332,533,1
170336,535,1
170340,535,1
170344,532,1
170348,530,1
170352,532,1
170356,534,1
170360,534,1
170364,533,1
170368,533,1
170372,534,1
170376,536,1
170380,536,1
170384,535,1
170388,536,1
170392,536,1
170396,536,1
170400,538,1
170404,535,1
170408,533,1
170412,534,1
170416,538,1
170420,541,1
170424,541,1
170428,538,1
170432,536,1
170436,536,1
170440,536,1
170444,535,1
170448,538,1
170452,541,1
170456,542,1
170460,543,1
170464,542,1
170468,542,1
170472,544,1
170476,550,1
170480,555,1
170484,559,1
170488,560,1
170492,560,1
170496,561,1
170500,560,1
170504,555,1
170508,552,1
170512,545,1
170516,545,1
170520,542,1
170524,535,1
170528,536,1
170532,538,1
170536,538,1
170540,535,1
170544,533,1
170548,533,1
170552,533,1
170556,534,1
170560,535,1
170564,534,1
170568,531,1
170572,522,1
170576,509,1
170580,490,1
170584,461,1
170588,416,1
170592,396,1
170596,412,1
170600,471,1
170604,578,1
170608,725,1
170612,850,1
170616,835,1
170620,702,1
170624,565,1
170628,522,1
170632,580,1
170636,654,1
170640,679,1
170644,661,1
170648,615,1
170652,560,1
170656,529,1
170660,518,1
170664,510,1
170668,505,1
170672,499,1
170676,498,1
170680,499,1
170684,498,1
170688,499,1
170692,500,1
170696,504,1
170700,504,1
170704,500,1
170708,500,1
170712,498,1
170716,499,1
170720,502,1
170724,505,1
170728,507,1
170732,507,1
170736,506,1
170740,505,1
170744,502,1
170748,502,1
170752,504,1
170756,508,1
170760,512,1
170764,512,1
170768,513,1
170772,517,1
170776,519,1
170780,519,1
170784,519,1
170788,521,1
170792,525,1
170796,529,1
170800,531,1
170804,533,1
170808,536,1
170812,540,1
170816,546,1
170820,553,1
170824,556,1
170828,560,1
170832,562,1
170836,567,1
170840,572,1
170844,577,1
170848,580,1
170852,580,1
170856,581,1
170860,582,1
170864,580,1
170868,581,1
170872,579,1
170876,576,1
170880,572,1
170884,566,1
170888,561,1
170892,556,1
170896,552,1
170900,543,1
170904,536,1
170908,533,1
170912,532,1
170916,532,1
170920,528,1
170924,522,1
170928,521,1
170932,520,1
170936,519,1
170940,518,1
170944,514,1
170948,516,1
170952,519,1
170956,518,1
170960,517,1
170964,516,1
170968,517,1
170972,519,1
170976,519,1
170980,517,1
170984,513,1
170988,512,1
170992,512,1
170996,513,1
171000,514,1
171004,517,1
171008,518,1
171012,517,1
171016,517,1
171020,518,1
171024,517,1
171028,518,1
171032,519,1
171036,520,1
171040,521,1
171044,517,1
171048,516,1
171052,519,1
171056,522,1
171060,526,1
171064,528,1
171068,531,1
171072,532,1
171076,533,1
171080,531,1
171084,529,1
171088,531,1
171092,534,1
171096,535,1
171100,535,1
171104,532,1
171108,533,1
171112,535,1
171116,536,1
171120,535,1
171124,533,1
171128,533,1
171132,536,1
171136,541,1
171140,543,1
171144,541,1
171148,536,1
171152,536,1
171156,541,1
171160,544,1
171164,545,1
171168,545,1
171172,546,1
171176,545,1
171180,545,1
171184,545,1
171188,545,1
171192,546,1
171196,545,1
171200,547,1
171204,547,1
171208,546,1
171212,546,1
171216,545,1
171220,546,1
171224,550,1
171228,555,1
171232,566,1
171236,572,1
171240,572,1
171244,571,1
171248,571,1
171252,570,1
171256,566,1
171260,558,1
171264,554,1
171268,552,1
171272,552,1
171276,553,1
171280,552,1
171284,546,1
171288,544,1
171292,543,1
171296,545,1
171300,545,1
171304,544,1
171308,544,1
171312,544,1
171316,542,1
171320,534,1
171324,519,1
171328,504,1
171332,481,1
171336,442,1
171340,402,1
171344,396,1
171348,436,1
171352,519,1
171356,652,1
171360,814,1
171364,885,1
171368,798,1
171372,648,1
171376,556,1
171380,576,1
171384,644,1
171388,686,1
171392,679,1
171396,645,1
171400,594,1
171404,546,1
171408,523,1
171412,514,1
171416,513,1
171420,514,1
171424,512,1
171428,507,1
171432,507,1
171436,509,1
171440,509,1
171444,508,1
171448,508,1
171452,511,1
171456,512,1
171460,511,1
171464,509,1
171468,512,1
171472,513,1
171476,514,1
171480,514,1
171484,512,1
171488,513,1
171492,514,1
171496,514,1
171500,517,1
171504,517,1
171508,516,1
171512,517,1
171516,521,1
171520,526,1
171524,526,1
171528,526,1
171532,528,1
171536,530,1
171540,532,1
171544,535,1
171548,538,1
171552,543,1
171556,544,1
171560,547,1
171564,552,1
171568,554,1
171572,559,1
171576,565,1
171580,569,1
171584,573,1
171588,579,1
171592,581,1
171596,582,1
171600,583,1
171604,583,1
171608,583,1
171612,584,1
171616,585,1
171620,586,1
171624,581,1
171628,572,1
171632,567,1
171636,561,1
171640,557,1
171644,554,1
171648,546,1
171652,541,1
171656,536,1
171660,537,1
171664,533,1
171668,528,1
171672,524,1
171676,523,1
171680,524,1
171684,523,1
171688,521,1
171692,521,1
171696,520,1
171700,521,1
171704,521,1
171708,519,1
171712,517,1
171716,517,1
171720,521,1
171724,521,1
171728,520,1
171732,520,1
171736,519,1
171740,521,1
171744,519,1
171748,518,1
171752,518,1
171756,518,1
171760,518,1
171764,518,1
171768,519,1
171772,522,1
171776,522,1
171780,519,1
171784,517,1
171788,518,1
171792,517,1
171796,518,1
171800,521,1
171804,521,1
171808,521,1
171812,522,1
171816,525,1
171820,528,1
171824,525,1
171828,523,1
171832,525,1
171836,526,1
171840,529,1
171844,531,1
171848,530,1
171852,532,1
171856,534,1
171860,534,1
171864,533,1
171868,532,1
171872,533,1
171876,535,1
171880,534,1
171884,529,1
171888,528,1
171892,533,1
171896,538,1
171900,541,1
171904,537,1
171908,535,1
171912,538,1
171916,542,1
171920,544,1
171924,543,1
171928,538,1
171932,536,1
171936,542,1
171940,545,1
171944,545,1
171948,545,1
171952,545,1
171956,543,1
171960,542,1
171964,540,1
171968,538,1
171972,542,1
171976,544,1
171980,548,1
171984,554,1
171988,556,1
171992,561,1
171996,562,1
172000,568,1
172004,571,1
172008,569,1
172012,567,1
172016,560,1
172020,554,1
172024,547,1
172028,545,1
172032,543,1
172036,541,1
172040,536,1
172044,536,1
172048,541,1
172052,543,1
172056,542,1
172060,542,1
172064,538,1
172068,536,1
172072,536,1
172076,535,1
172080,529,1
172084,516,1
172088,496,1
172092,469,1
172096,430,1
172100,397,1
172104,397,1
172108,436,1
172112,524,1
172116,661,1
172120,824,1
172124,879,1
172128,778,1
172132,632,1
172136,560,1
172140,600,1
172144,665,1
172148,693,1
172152,676,1
172156,628,1
172160,570,1
172164,533,1
172168,517,1
172172,509,1
172176,505,1
172180,501,1
172184,499,1
172188,502,1
172192,502,1
172196,502,1
172200,504,1
172204,502,1
172208,498,1
172212,497,1
172216,499,1
172220,500,1
172224,502,1
172228,506,1
172232,506,1
172236,506,1
172240,507,1
172244,505,1
172248,505,1
172252,508,1
172256,512,1
172260,512,1
172264,508,1
172268,506,1
172272,511,1
172276,519,1
172280,523,1
172284,524,1
172288,525,1
172292,528,1
172296,531,1
172300,529,1
172304,529,1
172308,531,1
172312,533,1
172316,538,1
172320,546,1
172324,552,1
172328,553,1
172332,556,1
172336,561,1
172340,567,1
172344,569,1
172348,572,1
172352,574,1
172356,578,1
172360,580,1
172364,582,1
172368,584,1
172372,582,1
172376,581,1
172380,581,1
172384,578,1
172388,572,1
172392,567,1
172396,561,1
172400,555,1
172404,546,1
172408,540,1
172412,535,1
172416,533,1
172420,531,1
172424,528,1
172428,524,1
172432,519,1
172436,518,1
172440,518,1
172444,518,1
172448,517,1
172452,517,1
172457,518,1
172461,519,1
172465,517,1
172469,513,1
172473,507,1
172477,506,1
172481,511,1
172485,514,1
172489,514,1
172493,512,1
172497,512,1
172501,514,1
172505,516,1
172509,514,1
172513,514,1
172517,517,1
172521,517,1
172525,514,1
172529,514,1
172533,516,1
172537,518,1
172541,519,1
172545,518,1
172549,517,1
172553,519,1
172557,523,1
172561,528,1
172565,526,1
172569,523,1
172573,523,1
172577,524,1
172581,523,1
172585,522,1
172589,523,1
172593,528,1
172597,532,1
172601,532,1
172605,531,1
172609,528,1
172613,528,1
172617,531,1
172621,534,1
172625,534,1
172629,534,1
172633,535,1
172637,536,1
172641,536,1
172645,536,1
172649,538,1
172653,541,1
172657,542,1
172661,540,1
172665,536,1
172669,535,1
172673,536,1
172677,536,1
172681,541,1
172685,542,1
172689,541,1
172693,540,1
172697,538,1
172701,540,1
172705,536,1
172709,535,1
172713,536,1
172717,535,1
172721,536,1
172725,540,1
172729,541,1
172733,540,1
172737,541,1
172741,543,1
172745,543,1
172749,541,1
172753,540,1
172757,543,1
172761,547,1
172765,553,1
172769,559,1
172773,566,1
172777,566,1
172781,564,1
172785,560,1
172789,557,1
172793,556,1
172797,555,1
172801,553,1
172805,547,1
172809,543,1
172813,542,1
172817,542,1
172821,538,1
172825,536,1
172829,537,1
172833,536,1
172837,535,1
172841,537,1
172845,536,1
172849,534,1
172853,533,1
172857,529,1
172861,519,1
172865,501,1
172869,474,1
172873,434,1
172877,397,1
172881,399,1
172885,442,1
172889,528,1
172893,660,1
172897,813,1
172901,860,1
172905,758,1
172909,615,1
172913,545,1
172917,585,1
172921,657,1
172925,689,1
172929,670,1
172933,622,1
172937,568,1
172941,531,1
172945,514,1
172949,506,1
172953,501,1
172957,499,1
172961,501,1
172965,504,1
172969,502,1
172973,502,1
172977,502,1
172981,502,1
172985,501,1
172989,497,1
172993,497,1
172997,499,1
173001,500,1
173005,502,1
173009,502,1
173013,502,1
173017,504,1
173021,504,1
173025,505,1
173029,507,1
173033,511,1
173037,509,1
173041,508,1
173045,508,1
173049,509,1
173053,513,1
173057,517,1
173061,518,1
173065,521,1
173069,522,1
173073,526,1
173077,532,1
173081,534,1
173085,533,1
173089,532,1
173093,535,1
173097,541,1
173101,546,1
173105,552,1
173109,554,1
173113,557,1
173117,562,1
173121,567,1
173125,569,1
173129,569,1
173133,572,1
173137,577,1
173141,579,1
173145,578,1
173149,578,1
173153,577,1
173157,576,1
173161,576,1
173165,571,1
173169,562,1
173173,555,1
173177,547,1
173181,544,1
173185,541,1
173189,535,1
173193,532,1
173197,529,1
173201,526,1
173205,523,1
173209,521,1
173213,517,1
173217,517,1
173221,518,1
173225,514,1
173229,513,1
173233,514,1
173237,516,1
173241,518,1
173245,518,1
173249,513,1
173253,507,1
173257,507,1
173261,507,1
173265,508,1
173269,509,1
173273,513,1
173277,514,1
173281,516,1
173285,516,1
173289,512,1
173293,512,1
173297,513,1
173301,514,1
173305,513,1
173309,512,1
173313,513,1
173317,513,1
173321,513,1
173325,514,1
173329,512,1
173333,513,1
173337,516,1
173341,517,1
173345,517,1
173349,517,1
173353,518,1
173357,519,1
173361,519,1
173365,522,1
173369,522,1
173373,524,1
173377,526,1
173381,529,1
173385,529,1
173389,526,1
173393,526,1
173397,526,1
173401,529,1
173405,532,1
173409,532,1
173413,532,1
173417,532,1
173421,533,1
173425,533,1
173429,532,1
173433,533,1
173437,535,1
173441,542,1
173445,544,1
173449,541,1
173453,536,1
173457,535,1
173461,536,1
173465,537,1
173469,537,1
173473,542,1
173477,546,1
173481,544,1
173485,543,1
173489,542,1
173493,541,1
173497,541,1
173501,546,1
173505,552,1
173509,556,1
173513,564,1
173517,569,1
173521,570,1
173525,567,1
173529,562,1
173533,556,1
173537,554,1
173541,553,1
173545,552,1
173549,546,1
173553,544,1
173557,542,1
173561,543,1
173565,543,1
173569,540,1
173573,541,1
173577,543,1
173581,544,1
173585,542,1
173589,542,1
173593,538,1
173597,535,1
173601,529,1
173605,514,1
173609,496,1
173613,470,1
173617,437,1
173621,413,1
173625,426,1
173629,475,1
173633,584,1
173637,736,1
173641,859,1
173645,835,1
173649,693,1
173653,565,1
173657,516,1
173661,567,1
173665,642,1
173669,673,1
173673,664,1
173677,633,1
173681,583,1
173685,543,1
173689,523,1
173693,517,1
173697,513,1
173701,513,1
173705,513,1
173709,509,1
173713,513,1
173717,518,1
173721,519,1
173725,519,1
173729,514,1
173733,512,1
173737,512,1
173741,516,1
173745,518,1
173749,517,1
173753,513,1
173757,513,1
173761,514,1
173765,518,1
173769,518,1
173773,518,1
173777,519,1
173781,522,1
173785,526,1
173789,525,1
173793,526,1
173797,529,1
173801,533,1
173805,532,1
173809,525,1
173813,528,1
173817,537,1
173821,546,1
173825,546,1
173829,544,1
173833,545,1
173837,549,1
173841,552,1
173845,555,1
173849,562,1
173853,569,1
173857,574,1
173861,580,1
173865,583,1
173869,584,1
173873,585,1
173877,588,1
173881,590,1
173885,594,1
173889,591,1
173893,589,1
173897,586,1
173901,584,1
173905,581,1
173909,576,1
173913,567,1
173917,561,1
173921,556,1
173925,552,1
173929,545,1
173933,541,1
173937,541,1
173941,536,1
173945,534,1
173949,529,1
173953,525,1
173957,523,1
173961,526,1
173965,528,1
173969,526,1
173973,523,1
173977,521,1
173981,521,1
173985,524,1
173989,523,1
173993,522,1
173997,521,1
174001,522,1
174005,522,1
174009,519,1
174013,521,1
174017,521,1
174021,522,1
174025,523,1
174029,522,1
174033,521,1
174037,521,1
174041,522,1
174045,522,1
174049,521,1
174053,522,1
174057,525,1
174061,525,1
174065,522,1
174069,521,1
174073,522,1
174077,525,1
174081,528,1
174085,526,1
174089,523,1
174093,523,1
174097,526,1
174101,532,1
174105,534,1
174109,534,1
174113,533,1
174117,533,1
174121,532,1
174125,532,1
174129,533,1
174133,535,1
174137,538,1
174141,542,1
174145,542,1
174149,536,1
174153,536,1
174157,536,1
174161,535,1
174165,541,1
174169,543,1
174173,543,1
174177,541,1
174181,542,1
174185,542,1
174189,536,1
174193,534,1
174197,537,1
174201,544,1
174205,545,1
174209,545,1
174213,543,1
174217,542,1
174221,542,1
174225,543,1
174229,543,1
174233,543,1
174237,542,1
174241,543,1
174245,545,1
174249,543,1
174253,544,1
174257,549,1
174261,552,1
174265,552,1
174269,545,1
174273,543,1
174277,543,1
174281,545,1
174285,546,1
174289,545,1
174293,544,1
174297,546,1
174301,548,1
174305,547,1
174309,543,1
174313,542,1
174317,545,1
174321,546,1
174325,547,1
174329,546,1
174333,547,1
174337,547,1
174341,547,1
174345,547,1
174349,547,1
174353,546,1
174357,544,1
174361,543,1
174365,545,1
174369,553,1
174373,558,1
174377,566,1
174381,571,1
174385,574,1
174389,572,1
174393,569,1
174397,561,1
174401,556,1
174405,556,1
174409,555,1
174413,550,1
174417,543,1
174421,538,1
174425,540,1
174429,542,1
174433,541,1
174437,537,1
174441,536,1
174445,538,1
174449,541,1
174453,540,1
174457,537,1
174461,535,1
174465,532,1
174469,522,1
174473,507,1
174477,483,1
174481,442,1
174485,400,1
174489,388,1
174493,411,1
174497,487,1
174501,609,1
174505,771,1
174509,879,1
174513,825,1
174517,690,1
174521,595,1
174525,615,1
174529,675,1
174533,708,1
174537,685,1
174541,640,1
174545,582,1
174549,536,1
174553,516,1
174557,509,1
174561,507,1
174565,506,1
174569,501,1
174574,497,1
174578,496,1
174582,494,1
174586,497,1
174590,499,1
174594,504,1
174598,507,1
174602,507,1
174606,506,1
174610,504,1
174614,502,1
174618,502,1
174622,505,1
174626,509,1
174630,512,1
174634,508,1
174638,507,1
174642,506,1
174646,507,1
174650,506,1
174654,506,1
174658,508,1
174662,512,1
174666,517,1
174670,517,1
174674,518,1
174678,521,1
174682,523,1
174686,525,1
174690,528,1
174694,529,1
174698,533,1
174702,536,1
174706,541,1
174710,543,1
174714,545,1
174718,550,1
174722,553,1
174726,557,1
174730,561,1
174734,567,1
174738,570,1
174742,571,1
174746,571,1
174750,576,1
174754,577,1
174758,578,1
174762,579,1
174766,580,1
174770,578,1
174774,570,1
174778,567,1
174782,562,1
174786,559,1
174790,553,1
174794,545,1
174798,544,1
174802,541,1
174806,534,1
174810,528,1
174814,525,1
174818,524,1
174822,524,1
174826,525,1
174830,519,1
174834,516,1
174838,514,1
174842,518,1
174846,519,1
174850,518,1
174854,516,1
174858,516,1
174862,517,1
174866,518,1
174870,518,1
174874,514,1
174878,514,1
174882,517,1
174886,518,1
174890,514,1
174894,512,1
174898,514,1
174902,518,1
174906,521,1
174910,519,1
174914,514,1
174918,512,1
174922,514,1
174926,519,1
174930,521,1
174934,519,1
174938,518,1
174942,518,1
174946,521,1
174950,520,1
174954,520,1
174958,522,1
174962,522,1
174966,522,1
174970,526,1
174974,526,1
174978,523,1
174982,522,1
174986,526,1
174990,529,1
174994,529,1
174998,532,1
175002,533,1
175006,535,1
175010,535,1
175014,534,1
175018,534,1
175022,535,1
175026,538,1
175030,537,1
175034,536,1
175038,536,1
175042,535,1
175046,537,1
175050,540,1
175054,538,1
175058,538,1
175062,536,1
175066,536,1
175070,534,1
175074,534,1
175078,536,1
175082,537,1
175086,538,1
175090,538,1
175094,538,1
175098,542,1
175102,543,1
175106,545,1
175110,542,1
175114,535,1
175118,534,1
175122,536,1
175126,542,1
175130,543,1
175134,541,1
175138,540,1
175142,538,1
175146,542,1
175150,542,1
175154,542,1
175158,541,1
175162,538,1
175166,538,1
175170,538,1
175174,536,1
175178,535,1
175182,537,1
175186,541,1
175190,541,1
175194,536,1
175198,534,1
175202,533,1
175206,536,1
175210,541,1
175214,542,1
175218,543,1
175222,544,1
175226,544,1
175230,542,1
175234,538,1
175238,538,1
175242,542,1
175246,546,1
175250,552,1
175254,555,1
175258,562,1
175262,568,1
175266,568,1
175270,561,1
175274,556,1
175278,555,1
175282,549,1
175286,546,1
175290,544,1
175294,541,1
175298,538,1
175302,537,1
175306,540,1
175310,543,1
175314,542,1
175318,541,1
175322,538,1
175326,537,1
175330,533,1
175334,531,1
175338,528,1
175342,525,1
175346,514,1
175350,499,1
175354,480,1
175358,447,1
175362,403,1
175366,393,1
175370,421,1
175374,493,1
175378,610,1
175382,765,1
175386,862,1
175390,800,1
175394,656,1
175398,557,1
175402,576,1
175406,645,1
175410,691,1
175414,681,1
175418,643,1
175422,589,1
175426,541,1
175430,516,1
175434,500,1
175438,495,1
175442,494,1
175446,494,1
175450,495,1
175454,493,1
175458,493,1
175462,494,1
175466,495,1
175470,494,1
175474,489,1
175478,493,1
175482,497,1
175486,499,1
175490,498,1
175494,495,1
175498,494,1
175502,497,1
175506,501,1
175510,502,1
175514,499,1
175518,498,1
175522,499,1
175526,504,1
175530,506,1
175534,508,1
175538,508,1
175542,509,1
175546,512,1
175550,513,1
175554,514,1
175558,518,1
175562,522,1
175566,528,1
175570,532,1
175574,532,1
175578,533,1
175582,538,1
175586,545,1
175590,549,1
175594,549,1
175598,552,1
175602,553,1
175606,560,1
175610,562,1
175614,562,1
175618,569,1
175622,576,1
175626,579,1
175630,579,1
175634,578,1
175638,579,1
175642,581,1
175646,578,1
175650,570,1
175654,562,1
175658,555,1
175662,546,1
175666,543,1
175670,541,1
175674,534,1
175678,532,1
175682,530,1
175686,526,1
175690,523,1
175694,521,1
175698,519,1
175702,519,1
175706,518,1
175710,516,1
175714,514,1
175718,516,1
175722,516,1
175726,514,1
175730,516,1
175734,514,1
175738,514,1
175742,517,1
175746,518,1
175750,514,1
175754,509,1
175758,509,1
175762,513,1
175766,513,1
175770,513,1
175774,509,1
175778,508,1
175782,508,1
175786,510,1
175790,510,1
175794,512,1
175798,514,1
175802,514,1
175806,516,1
175810,513,1
175814,507,1
175818,509,1
175822,513,1
175826,516,1
175830,518,1
175834,518,1
175838,519,1
175842,519,1
175846,521,1
175850,523,1
175854,523,1
175858,522,1
175862,522,1
175866,524,1
175870,529,1
175874,528,1
175878,526,1
175882,529,1
175886,529,1
175890,529,1
175894,528,1
175898,533,1
175902,535,1
175906,535,1
175910,533,1
175914,529,1
175918,526,1
175922,531,1
175926,535,1
175930,538,1
175934,535,1
175938,536,1
175942,541,1
175946,543,1
175950,542,1
175954,538,1
175958,536,1
175962,535,1
175966,540,1
175970,542,1
175974,541,1
175978,541,1
175982,538,1
175986,538,1
175990,542,1
175994,543,1
175998,541,1
176002,542,1
176006,545,1
176010,547,1
176014,549,1
176018,546,1
176022,545,1
176026,547,1
176030,547,1
176034,545,1
176038,544,1
176042,549,1
176046,559,1
176050,566,1
176054,568,1
176058,570,1
176062,570,1
176066,571,1
176070,570,1
176074,567,1
176078,561,1
176082,560,1
176086,560,1
176090,556,1
176094,550,1
176098,545,1
176102,545,1
176106,545,1
176110,545,1
176114,541,1
176118,536,1
176122,540,1
176126,541,1
176130,542,1
176134,541,1
176138,538,1
176142,532,1
176146,521,1
176150,505,1
176154,475,1
176158,436,1
176162,408,1
176166,415,1
176170,462,1
176174,559,1
176178,705,1
176182,849,1
176186,865,1
176190,738,1
176194,590,1
176198,523,1
176202,569,1
176206,646,1
176210,682,1
176214,673,1
176218,633,1
176222,580,1
176226,541,1
176230,526,1
176234,518,1
176238,512,1
176242,506,1
176246,507,1
176250,509,1
176254,512,1
176258,510,1
176262,509,1
176266,509,1
176270,509,1
176274,508,1
176278,506,1
176282,506,1
176286,508,1
176290,511,1
176294,511,1
176298,511,1
176302,512,1
176306,513,1
176310,512,1
176314,511,1
176318,513,1
176322,518,1
176326,522,1
176330,524,1
176334,522,1
176338,521,1
176342,521,1
176346,525,1
176350,528,1
176354,529,1
176358,532,1
176362,533,1
176366,536,1
176370,541,1
176374,542,1
176378,543,1
176382,546,1
176386,555,1
176390,559,1
176394,560,1
176398,561,1
176402,568,1
176406,573,1
176410,579,1
176414,580,1
176418,580,1
176422,581,1
176426,584,1
176430,585,1
176434,582,1
176438,580,1
176442,580,1
176446,581,1
176450,578,1
176454,570,1
176458,562,1
176462,554,1
176466,553,1
176470,550,1
176474,545,1
176478,540,1
176482,535,1
176486,533,1
176490,531,1
176494,526,1
176498,523,1
176502,522,1
176506,523,1
176510,521,1
176514,519,1
176518,518,1
176522,519,1
176526,521,1
176530,523,1
176534,521,1
176538,520,1
176542,522,1
176546,523,1
176550,523,1
176554,519,1
176558,517,1
176562,517,1
176566,517,1
176570,519,1
176574,520,1
176578,521,1
176582,521,1
176586,521,1
176590,521,1
176594,518,1
176598,517,1
176602,519,1
176606,521,1
176610,521,1
176614,519,1
176618,521,1
176622,523,1
176626,526,1
176630,529,1
176634,525,1
176638,522,1
176643,523,1
176647,528,1
176651,532,1
176655,529,1
176659,529,1
176663,532,1
176667,532,1
176671,532,1
176675,532,1
176679,532,1
176683,532,1
176687,533,1
176691,535,1
176695,534,1
176699,535,1
176703,538,1
176707,538,1
176711,538,1
176715,537,1
176719,538,1
176723,538,1
176727,537,1
176731,540,1
176735,542,1
176739,544,1
176743,542,1
176747,538,1
176751,535,1
176755,535,1
176759,536,1
176763,538,1
176767,538,1
176771,542,1
176775,543,1
176779,543,1
176783,542,1
176787,542,1
176791,541,1
176795,537,1
176799,536,1
176803,541,1
176807,542,1
176811,544,1
176815,544,1
176819,541,1
176823,537,1
176827,534,1
176831,535,1
176835,538,1
176839,541,1
176843,538,1
176847,540,1
176851,542,1
176855,541,1
176859,541,1
176863,542,1
176867,542,1
176871,543,1
176875,545,1
176879,543,1
176883,542,1
176887,542,1
176891,545,1
176895,545,1
176899,546,1
176903,546,1
176907,545,1
176911,545,1
176915,546,1
176919,553,1
176923,560,1
176927,567,1
176931,570,1
176935,567,1
176939,566,1
176943,565,1
176947,560,1
176951,554,1
176955,547,1
176959,545,1
176963,544,1
176967,541,1
176971,541,1
176975,541,1
176979,542,1
176983,542,1
176987,541,1
176991,540,1
176995,538,1
176999,536,1
177003,537,1
177007,538,1
177011,535,1
177015,522,1
177019,502,1
177023,480,1
177027,446,1
177031,398,1
177035,382,1
177039,403,1
177043,475,1
177047,591,1
177051,748,1
177055,874,1
177059,841,1
177063,710,1
177067,602,1
177071,609,1
177075,672,1
177079,708,1
177083,686,1
177087,642,1
177091,586,1
177095,540,1
177099,517,1
177103,507,1
177107,504,1
177111,500,1
177115,497,1
177119,496,1
177123,496,1
177127,498,1
177131,501,1
177135,502,1
177139,502,1
177143,499,1
177147,496,1
177151,498,1
177155,501,1
177159,500,1
177163,502,1
177167,505,1
177171,507,1
177175,505,1
177179,504,1
177183,505,1
177187,507,1
177191,507,1
177195,507,1
177199,507,1
177203,512,1
177207,516,1
177211,516,1
177215,514,1
177219,517,1
177223,521,1
177227,524,1
177231,529,1
177235,529,1
177239,526,1
177243,530,1
177247,535,1
177251,541,1
177255,544,1
177259,545,1
177263,546,1
177267,553,1
177271,561,1
177275,567,1
177279,568,1
177283,568,1
177287,568,1
177291,571,1
177295,577,1
177299,580,1
177303,582,1
177307,582,1
177311,583,1
177315,579,1
177319,571,1
177323,567,1
177327,562,1
177331,559,1
177335,553,1
177339,544,1
177343,538,1
177347,533,1
177351,531,1
177355,526,1
177359,522,1
177363,522,1
177367,521,1
177371,521,1
177375,519,1
177379,518,1
177383,519,1
177387,520,1
177391,519,1
177395,517,1
177399,518,1
177403,518,1
177407,519,1
177411,519,1
177415,519,1
177419,517,1
177423,514,1
177427,516,1
177431,516,1
177435,514,1
177439,513,1
177443,514,1
177447,514,1
177451,514,1
177455,516,1
177459,517,1
177463,514,1
177467,513,1
177471,514,1
177475,516,1
177479,518,1
177483,522,1
177487,521,1
177491,519,1
177495,518,1
177499,518,1
177503,519,1
177507,519,1
177511,521,1
177515,524,1
177519,523,1
177523,521,1
177527,521,1
177531,522,1
177535,522,1
177539,522,1
177543,526,1
177547,530,1
177551,533,1
177555,532,1
177559,529,1
177563,529,1
177567,531,1
177571,533,1
177575,535,1
177579,535,1
177583,534,1
177587,533,1
177591,533,1
177595,535,1
177599,537,1
177603,540,1
177607,540,1
177611,537,1
177615,537,1
177619,537,1
177623,536,1
177627,540,1
177631,543,1
177635,542,1
177639,540,1
177643,541,1
177647,542,1
177651,542,1
177655,543,1
177659,541,1
177663,540,1
177667,538,1
177671,541,1
177675,542,1
177679,540,1
177683,541,1
177687,542,1
177691,544,1
177695,542,1
177699,535,1
177703,536,1
177707,538,1
177711,542,1
177715,542,1
177719,543,1
177723,545,1
177727,545,1
177731,546,1
177735,543,1
177739,538,1
177743,537,1
177747,543,1
177751,550,1
177755,556,1
177759,561,1
177763,566,1
177767,562,1
177771,558,1
177775,555,1
177779,554,1
177783,552,1
177787,546,1
177791,543,1
177795,542,1
177799,541,1
177803,541,1
177807,541,1
177811,541,1
177815,540,1
177819,537,1
177823,535,1
177827,533,1
177831,534,1
177835,534,1
177839,532,1
177843,528,1
177847,517,1
177851,501,1
177855,480,1
177859,441,1
177863,397,1
177867,388,1
177871,424,1
177875,501,1
177879,619,1
177883,777,1
177887,880,1
177891,820,1
177895,668,1
177899,561,1
177903,569,1
177907,638,1
177911,685,1
177915,680,1
177919,639,1
177923,580,1
177927,533,1
177931,512,1
177935,501,1
177939,495,1
177943,494,1
177947,497,1
177951,502,1
177955,502,1
177959,497,1
177963,495,1
177967,494,1
177971,494,1
177975,496,1
177979,495,1
177983,496,1
177987,497,1
177991,500,1
177995,505,1
177999,502,1
178003,499,1
178007,500,1
178011,504,1
178015,505,1
178019,502,1
178023,502,1
178027,505,1
178031,505,1
178035,506,1
178039,505,1
178043,502,1
178047,506,1
178051,509,1
178055,512,1
178059,517,1
178063,523,1
178067,525,1
178071,526,1
178075,531,1
178079,535,1
178083,541,1
178087,545,1
178091,550,1
178095,555,1
178099,555,1
178103,555,1
178107,560,1
178111,567,1
178115,570,1
178119,571,1
178123,572,1
178127,576,1
178131,580,1
178135,581,1
178139,578,1
178143,571,1
178147,569,1
178151,570,1
178155,569,1
178159,560,1
178163,547,1
178167,542,1
178171,536,1
178175,533,1
178179,529,1
178183,524,1
178187,522,1
178191,521,1
178195,521,1
178199,520,1
178203,520,1
178207,518,1
178211,514,1
178215,513,1
178219,511,1
178223,512,1
178227,512,1
178231,509,1
178235,507,1
178239,505,1
178243,507,1
178247,510,1
178251,513,1
178255,512,1
178259,509,1
178263,508,1
178267,508,1
178271,512,1
178275,516,1
178279,514,1
178283,512,1
178287,510,1
178291,513,1
178295,516,1
178299,513,1
178303,509,1
178307,513,1
178311,518,1
178315,521,1
178319,518,1
178323,517,1
178327,519,1
178331,521,1
178335,523,1
178339,523,1
178343,523,1
178347,524,1
178351,524,1
178355,525,1
178359,526,1
178363,531,1
178367,534,1
178371,534,1
178375,532,1
178379,529,1
178383,533,1
178387,537,1
178391,541,1
178395,538,1
178399,536,1
178403,536,1
178407,540,1
178411,542,1
178415,538,1
178419,535,1
178423,536,1
178427,541,1
178431,545,1
178435,545,1
178439,543,1
178443,541,1
178447,542,1
178451,544,1
178455,545,1
178459,542,1
178463,541,1
178467,543,1
178471,546,1
178475,549,1
178479,549,1
178483,545,1
178487,542,1
178491,543,1
178495,547,1
178499,550,1
178503,547,1
178507,546,1
178511,547,1
178515,547,1
178519,546,1
178523,552,1
178527,556,1
178531,567,1
178535,573,1
178539,580,1
178543,577,1
178547,573,1
178551,571,1
178555,568,1
178559,556,1
178563,553,1
178567,554,1
178571,553,1
178575,553,1
178579,547,1
178583,543,1
178587,541,1
178591,541,1
178595,545,1
178599,546,1
178603,546,1
178607,544,1
178611,543,1
178615,543,1
178619,538,1
178623,533,1
178627,521,1
178631,499,1
178635,469,1
178639,430,1
178643,403,1
178647,408,1
178651,458,1
178655,560,1
178659,704,1
178663,854,1
178667,874,1
178671,750,1
178675,603,1
178679,535,1
178683,579,1
178687,652,1
178691,686,1
178695,674,1
178699,632,1
178703,579,1
178707,538,1
178711,523,1
178715,517,1
178719,512,1
178723,508,1
178727,509,1
178731,511,1
178735,512,1
178739,508,1
178743,506,1
178747,508,1
178751,513,1
178755,514,1
178759,509,1
178763,508,1
178767,509,1
178771,513,1
178776,514,1
178780,512,1
178784,511,1
178788,513,1
178792,512,1
178796,512,1
178800,517,1
178804,519,1
178808,522,1
178812,523,1
