timestamp_ms,value,lead_ok,ax100,ay100,az100,motion_flag
1720904,532,1,0,0,0,0
1720912,524,1,0,0,0,0
1720904,532,1,0,0,0,0
1720912,524,1,0,0,0,0
1720904,532,1,0,0,0,0
1720912,524,1,0,0,0,0
1720904,532,1,0,0,0,0
1720912,524,1,0,0,0,0
1720904,532,1,0,0,0,0
1720912,524,1,0,0,0,0
1720904,532,1,0,0,0,0
1720912,524,1,0,0,0,0
1720904,532,1,0,0,0,0
1720912,524,1,0,0,0,0
1720904,532,1,0,0,0,0
1720912,524,1,0,0,0,0
1720904,532,1,0,0,0,0
1720912,524,1,0,0,0,0
1720904,532,1,0,0,0,0
1720912,524,1,0,0,0,0
1720904,532,1,0,0,0,0
1720912,524,1,0,0,0,0
1720904,532,1,0,0,0,0
1720912,524,1,0,0,0,0
1720904,532,1,0,0,0,0
1720912,524,1,0,0,0,0
1720904,532,1,0,0,0,0
1720912,524,1,0,0,0,0
1720904,532,1,0,0,0,0
1720912,524,1,0,0,0,0
1720904,532,1,0,0,0,0
1720912,524,1,0,0,0,0
1720904,532,1,0,0,0,0
1720912,524,1,0,0,0,0
1720904,532,1,0,0,0,0
1720912,524,1,0,0,0,0
1720904,532,1,0,0,0,0
1720912,524,1,0,0,0,0
1720904,532,1,0,0,0,0
1720912,524,1,0,0,0,0
1720904,532,1,0,0,0,0
1720912,524,1,0,0,0,0
1720904,532,1,0,0,0,0
1720912,524,1,0,0,0,0
1720904,532,1,0,0,0,0
1720912,524,1,0,0,0,0
1720904,532,1,0,0,0,0
1720912,524,1,0,0,0,0
1720904,532,1,0,0,0,0
1720912,524,1,0,0,0,0
1720904,532,1,0,0,0,0
1720912,524,1,0,0,0,0
1720904,532,1,0,0,0,0
1720912,524,1,0,0,0,0
1720904,532,1,0,0,0,0
1720912,524,1,0,0,0,0
1720904,532,1,0,0,0,0
1720912,524,1,0,0,0,0
1720904,532,1,0,0,0,0
1720912,524,1,0,0,0,0
1720904,532,1,0,0,0,0
1720912,524,1,0,0,0,0
1720904,532,1,0,0,0,0
1720912,524,1,0,0,0,0
1720904,532,1,0,0,0,0
1720912,524,1,0,0,0,0
1720904,532,1,0,0,0,0
1720912,524,1,0,0,0,0
1720904,532,1,0,0,0,0
1720912,524,1,0,0,0,0
1720904,532,1,0,0,0,0
1720912,524,1,0,0,0,0
1720904,532,1,0,0,0,0
1720912,524,1,0,0,0,0
1720904,532,1,0,0,0,0
1720912,524,1,0,0,0,0
1720904,532,1,0,0,0,0
1720912,524,1,0,0,0,0
1720904,532,1,0,0,0,0
1720912,524,1,0,0,0,0
1720904,532,1,0,0,0,0
1720912,524,1,0,0,0,0
1720904,532,1,0,0,0,0
1720912,524,1,0,0,0,0
1720904,532,1,0,0,0,0
1720912,524,1,0,0,0,0
1720904,532,1,0,0,0,0
1720912,524,1,0,0,0,0
1720904,532,1,0,0,0,0
1720912,524,1,0,0,0,0
1720904,532,1,0,0,0,0
1720912,524,1,0,0,0,0
1720904,532,1,0,0,0,0
1720912,524,1,0,0,0,0
1720904,532,1,0,0,0,0
1720912,524,1,0,0,0,0
1720904,532,1,0,0,0,0
1720912,524,1,0,0,0,0
1720904,532,1,0,0,0,0
1720912,524,1,0,0,0,0
1720904,532,1,0,0,0,0
1720912,524,1,0,0,0,0
1720904,532,1,0,0,0,0
1720912,524,1,0,0,0,0
1720904,532,1,0,0,0,0
1720912,524,1,0,0,0,0
1720920,523,1,0,0,0,0
1720928,517,1,0,0,0,0
1720936,519,1,0,0,0,0
1720944,519,1,0,0,0,0
1720952,514,1,0,0,0,0
1720960,519,1,0,0,0,0
1720968,516,1,0,0,0,0
1720976,512,1,0,0,0,0
1720984,512,1,0,0,0,0
1720992,516,1,0,0,0,0
1721000,523,1,0,0,0,0
1721008,517,1,0,0,0,0
1721016,516,1,0,0,0,0
1721024,519,1,0,0,0,0
1721032,521,1,0,0,0,0
1721041,523,1,0,0,0,0
1721049,517,1,0,0,0,0
1721057,519,1,0,0,0,0
1721065,525,1,0,0,0,0
1721073,522,1,0,0,0,0
1721081,523,1,0,0,0,0
1721089,524,1,0,0,0,0
1721097,528,1,0,0,0,0
1721105,531,1,0,0,0,0
1721113,529,1,0,0,0,0
1721121,533,1,0,0,0,0
1721129,534,1,0,0,0,0
1721137,534,1,0,0,0,0
1721145,538,1,0,0,0,0
1721153,535,1,0,0,0,0
1721161,542,1,0,0,0,0
1721169,543,1,0,0,0,0
1721177,541,1,0,0,0,0
1721185,536,1,0,0,0,0
1721193,533,1,0,0,0,0
1721201,542,1,0,0,0,0
1721209,540,1,0,0,0,0
1721217,541,1,0,0,0,0
1721225,545,1,0,0,0,0
1721233,541,1,0,0,0,0
1721241,540,1,0,0,0,0
1721249,542,1,0,0,0,0
1721257,543,1,0,0,0,0
1721265,546,1,0,0,0,0
1721273,541,1,0,0,0,0
1721281,545,1,0,0,0,0
1721289,541,1,0,0,0,0
1721297,541,1,0,0,0,0
1721305,543,1,0,0,0,0
1721313,537,1,0,0,0,0
1721321,541,1,0,0,0,0
1721329,541,1,0,0,0,0
1721337,538,1,0,0,0,0
1721345,542,1,0,0,0,0
1721353,543,1,0,0,0,0
1721361,542,1,0,0,0,0
1721369,543,1,0,0,0,0
1721377,546,1,0,0,0,0
1721385,557,1,0,0,0,0
1721393,562,1,0,0,0,0
1721401,561,1,0,0,0,0
1721409,553,1,0,0,0,0
1721417,543,1,0,0,0,0
1721425,543,1,0,0,0,0
1721433,541,1,0,0,0,0
1721441,543,1,0,0,0,0
1721449,542,1,0,0,0,0
1721457,542,1,0,0,0,0
1721465,542,1,0,0,0,0
1721473,523,1,0,0,0,0
1721481,489,1,0,0,0,0
1721489,402,1,0,0,0,0
1721497,399,1,0,0,0,0
1723114,544,1,0,0,0,0
1723122,542,1,0,0,0,0
1723130,543,1,0,0,0,0
1723138,545,1,0,0,0,0
1723146,547,1,0,0,0,0
1723138,545,1,0,0,0,0
1723146,547,1,0,0,0,0
1723138,545,1,0,0,0,0
1723146,547,1,0,0,0,0
1723154,538,1,0,0,0,0
0,0,0,0,0,100,0
0,0,0,0,0,100,0
0,0,0,0,0,100,0
0,0,0,0,0,100,0
0,0,0,0,0,100,0
0,0,0,0,0,100,0
0,0,0,0,0,100,0
0,0,0,0,0,100,0
0,0,0,0,0,100,0
0,0,0,0,0,100,0
0,0,0,0,0,100,0
0,0,0,0,0,100,0
0,0,0,0,0,100,0
0,0,0,0,0,100,0
0,0,0,0,0,100,0
0,0,0,0,0,100,0
0,0,0,0,0,100,0
0,0,0,0,0,100,0
0,0,0,0,0,100,0
0,0,0,0,0,100,0
0,0,0,0,0,100,0
0,0,0,0,0,100,0
0,0,0,0,0,100,0
0,0,0,0,0,100,0
0,0,0,0,0,100,0
0,0,0,0,0,100,0
0,0,0,0,0,100,0
0,0,0,0,0,100,0
0,0,0,0,0,100,0
0,0,0,0,0,100,0
0,0,0,0,0,100,0
0,0,0,0,0,100,0
0,0,0,0,0,100,0
0,0,0,0,0,100,0
0,0,0,0,0,100,0
0,0,0,0,0,100,0
0,0,0,0,0,100,0
0,0,0,0,0,100,0
0,0,0,0,0,100,0
0,0,0,0,0,100,0
0,0,0,0,0,100,0
0,0,0,0,0,100,0
0,0,0,0,0,100,0
0,0,0,0,0,100,0
0,0,0,0,0,100,0
0,0,0,0,0,100,0
0,0,0,0,0,100,0
1723162,542,1,0,0,0,0
1723170,543,1,0,0,0,0
1723178,542,1,0,0,0,0
1723186,547,1,0,0,0,0
1723194,542,1,0,0,0,0
1723202,546,1,0,0,0,0
1723210,545,1,0,0,0,0
1723218,543,1,0,0,0,0
1723226,546,1,0,0,0,0
1723234,541,1,0,0,0,0
1723242,541,1,0,0,0,0
1723250,541,1,0,0,0,0
1723258,538,1,0,0,0,0
1723266,545,1,0,0,0,0
1723274,543,1,0,0,0,0
1723282,550,1,0,0,0,0
1723290,556,1,0,0,0,0
1723298,560,1,0,0,0,0
1723306,556,1,0,0,0,0
1723314,546,1,0,0,0,0
1723322,540,1,0,0,0,0
1723330,542,1,0,0,0,0
1723338,544,1,0,0,0,0
1723346,542,1,0,0,0,0
1723354,541,1,0,0,0,0
1723362,542,1,0,0,0,0
1723370,543,1,0,0,0,0
1723378,523,1,0,0,0,0
1723386,483,1,0,0,0,0
1723394,389,1,0,0,0,0
1723402,398,1,0,0,0,0
1723410,598,1,0,0,0,0
1723418,855,1,0,0,0,0
1723426,676,1,0,0,0,0
1723434,580,1,0,0,0,0
1723442,693,1,0,0,0,0
1723450,657,1,0,0,0,0
1723458,545,1,0,0,0,0
1723466,518,1,0,0,0,0
1723474,511,1,0,0,0,0
1723482,514,1,0,0,0,0
1723490,507,1,0,0,0,0
1723498,504,1,0,0,0,0
1723506,507,1,0,0,0,0
1723514,508,1,0,0,0,0
1723522,509,1,0,0,0,0
1723530,505,1,0,0,0,0
1723538,507,1,0,0,0,0
1723546,512,1,0,0,0,0
1723554,511,1,0,0,0,0
1723562,516,1,0,0,0,0
1723570,517,1,0,0,0,0
1723578,516,1,0,0,0,0
1723586,528,1,0,0,0,0
1723594,525,1,0,0,0,0
1723602,529,1,0,0,0,0
1723610,534,1,0,0,0,0
1723618,542,1,0,0,0,0
1723626,555,1,0,0,0,0
1723634,555,1,0,0,0,0
1723642,569,1,0,0,0,0
1723650,576,1,0,0,0,0
1723658,581,1,0,0,0,0
1723666,586,1,0,0,0,0
1723674,583,1,0,0,0,0
1723682,586,1,0,0,0,0
1723690,579,1,0,0,0,0
1723698,568,1,0,0,0,0
1723706,553,1,0,0,0,0
1723714,541,1,0,0,0,0
1723722,535,1,0,0,0,0
1723730,523,1,0,0,0,0
1723738,516,1,0,0,0,0
1723746,521,1,0,0,0,0
1723754,514,1,0,0,0,0
1723762,516,1,0,0,0,0
1723770,517,1,0,0,0,0
1723778,516,1,0,0,0,0
1723786,516,1,0,0,0,0
1723794,514,1,0,0,0,0
1723802,516,1,0,0,0,0
1723810,514,1,0,0,0,0
1723818,516,1,0,0,0,0
1723826,518,1,0,0,0,0
1723834,519,1,0,0,0,0
1723842,518,1,0,0,0,0
1723850,519,1,0,0,0,0
1723858,519,1,0,0,0,0
1723866,521,1,0,0,0,0
1723874,521,1,0,0,0,0
1723882,524,1,0,0,0,0
1723890,528,1,0,0,0,0
1723898,531,1,0,0,0,0
1723906,530,1,0,0,0,0
1723914,529,1,0,0,0,0
1723922,528,1,0,0,0,0
1723930,530,1,0,0,0,0
1723939,535,1,0,0,0,0
1723947,535,1,0,0,0,0
1723955,537,1,0,0,0,0
1723963,543,1,0,0,0,0
1723971,543,1,0,0,0,0
1723979,542,1,0,0,0,0
1723987,540,1,0,0,0,0
1723995,537,1,0,0,0,0
1724003,543,1,0,0,0,0
1724011,547,1,0,0,0,0
1724019,540,1,0,0,0,0
1724027,542,1,0,0,0,0
1724035,545,1,0,0,0,0
1724043,542,1,0,0,0,0
1724051,543,1,0,0,0,0
1724059,547,1,0,0,0,0
1724067,547,1,0,0,0,0
1724075,545,1,0,0,0,0
1724083,549,1,0,0,0,0
1724091,547,1,0,0,0,0
1724099,545,1,0,0,0,0
1724107,542,1,0,0,0,0
1724115,547,1,0,0,0,0
1724123,546,1,0,0,0,0
1724131,546,1,0,0,0,0
1724139,545,1,0,0,0,0
1724147,545,1,0,0,0,0
1724155,541,1,0,0,0,0
1724163,543,1,0,0,0,0
1724171,548,1,0,0,0,0
1724179,547,1,0,0,0,0
1724187,553,1,0,0,0,0
1724195,562,1,0,0,0,0
1724203,566,1,0,0,0,0
1724211,555,1,0,0,0,0
1724219,549,1,0,0,0,0
1724227,543,1,0,0,0,0
1724235,538,1,0,0,0,0
1724243,542,1,0,0,0,0
1724251,540,1,0,0,0,0
1724259,542,1,0,0,0,0
1724267,543,1,0,0,0,0
1724275,538,1,0,0,0,0
1724283,523,1,0,0,0,0
1724291,486,1,0,0,0,0
1724299,394,1,0,0,0,0
1724307,402,1,0,0,0,0
1724315,603,1,0,0,0,0
1724323,856,1,0,0,0,0
1724331,663,1,0,0,0,0
1724339,594,1,0,0,0,0
1724347,702,1,0,0,0,0
1724355,652,1,0,0,0,0
1724363,544,1,0,0,0,0
1724371,513,1,0,0,0,0
1724379,509,1,0,0,0,0
1724387,514,1,0,0,0,0
1724395,506,1,0,0,0,0
1724403,512,1,0,0,0,0
1724411,506,1,0,0,0,0
1724419,512,1,0,0,0,0
1724427,512,1,0,0,0,0
1724435,505,1,0,0,0,0
1724443,509,1,0,0,0,0
1724451,514,1,0,0,0,0
1724459,512,1,0,0,0,0
1724467,518,1,0,0,0,0
1724475,519,1,0,0,0,0
1724483,522,1,0,0,0,0
1724491,525,1,0,0,0,0
1724499,525,1,0,0,0,0
1724507,535,1,0,0,0,0
1724515,537,1,0,0,0,0
1724523,546,1,0,0,0,0
1724531,554,1,0,0,0,0
1724539,556,1,0,0,0,0
1724547,572,1,0,0,0,0
1724555,577,1,0,0,0,0
1724563,585,1,0,0,0,0
1724571,594,1,0,0,0,0
1724579,590,1,0,0,0,0
1724587,586,1,0,0,0,0
1724595,574,1,0,0,0,0
1724603,566,1,0,0,0,0
1724611,552,1,0,0,0,0
1724619,537,1,0,0,0,0
1724627,532,1,0,0,0,0
1724635,524,1,0,0,0,0
1724643,521,1,0,0,0,0
1724651,521,1,0,0,0,0
1724659,519,1,0,0,0,0
1724667,519,1,0,0,0,0
1724675,514,1,0,0,0,0
1724683,518,1,0,0,0,0
1724691,518,1,0,0,0,0
1724699,514,1,0,0,0,0
1724707,514,1,0,0,0,0
1724715,516,1,0,0,0,0
1724723,518,1,0,0,0,0
1724731,514,1,0,0,0,0
1724739,513,1,0,0,0,0
1724747,517,1,0,0,0,0
1724755,516,1,0,0,0,0
1724763,518,1,0,0,0,0
1724771,519,1,0,0,0,0
1724779,516,1,0,0,0,0
1724787,522,1,0,0,0,0
1724795,523,1,0,0,0,0
1724803,523,1,0,0,0,0
1724811,528,1,0,0,0,0
1724819,528,1,0,0,0,0
1724827,531,1,0,0,0,0
1724835,533,1,0,0,0,0
1724843,532,1,0,0,0,0
1724851,530,1,0,0,0,0
1724859,530,1,0,0,0,0
1724867,536,1,0,0,0,0
1724875,537,1,0,0,0,0
1724883,537,1,0,0,0,0
1724891,543,1,0,0,0,0
1724899,538,1,0,0,0,0
1724907,540,1,0,0,0,0
1724915,545,1,0,0,0,0
1724923,541,1,0,0,0,0
1724931,547,1,0,0,0,0
1724939,543,1,0,0,0,0
1724947,543,1,0,0,0,0
1724955,545,1,0,0,0,0
1724963,546,1,0,0,0,0
1724971,546,1,0,0,0,0
1724979,540,1,0,0,0,0
1724987,542,1,0,0,0,0
1724995,541,1,0,0,0,0
1725003,545,1,0,0,0,0
1725011,549,1,0,0,0,0
1725019,543,1,0,0,0,0
1725027,546,1,0,0,0,0
1725035,547,1,0,0,0,0
1725043,546,1,0,0,0,0
1725051,541,1,0,0,0,0
1725059,543,1,0,0,0,0
1725067,549,1,0,0,0,0
1725075,547,1,0,0,0,0
1725083,547,1,0,0,0,0
1725091,549,1,0,0,0,0
1725099,541,1,0,0,0,0
1725107,547,1,0,0,0,0
1725115,547,1,0,0,0,0
1725123,546,1,0,0,0,0
1725131,549,1,0,0,0,0
1725139,542,1,0,0,0,0
1725147,560,1,0,0,0,0
1725155,561,1,0,0,0,0
1725163,561,1,0,0,0,0
1725171,555,1,0,0,0,0
1725179,552,1,0,0,0,0
1725187,552,1,0,0,0,0
1725195,543,1,0,0,0,0
1725203,537,1,0,0,0,0
1725211,545,1,0,0,0,0
1725219,545,1,0,0,0,0
1725227,546,1,0,0,0,0
1725235,533,1,0,0,0,0
1725243,506,1,0,0,0,0
1725251,440,1,0,0,0,0
1725259,379,1,0,0,0,0
1725267,509,1,0,0,0,0
1725275,793,1,0,0,0,0
1725283,786,1,0,0,0,0
1725291,567,1,0,0,0,0
1725299,653,1,0,0,0,0
1725307,693,1,0,0,0,0
1725315,593,1,0,0,0,0
1725323,521,1,0,0,0,0
1725331,516,1,0,0,0,0
1725339,512,1,0,0,0,0
1725347,512,1,0,0,0,0
1725355,508,1,0,0,0,0
1725363,507,1,0,0,0,0
1725371,514,1,0,0,0,0
1725379,508,1,0,0,0,0
1725387,508,1,0,0,0,0
1725395,509,1,0,0,0,0
1725403,509,1,0,0,0,0
1725411,513,1,0,0,0,0
1725420,514,1,0,0,0,0
1725428,516,1,0,0,0,0
1725436,518,1,0,0,0,0
1725444,522,1,0,0,0,0
1725452,525,1,0,0,0,0
1725460,529,1,0,0,0,0
1725468,536,1,0,0,0,0
1725476,535,1,0,0,0,0
1725484,552,1,0,0,0,0
1725492,559,1,0,0,0,0
1725500,555,1,0,0,0,0
1725508,574,1,0,0,0,0
1725516,580,1,0,0,0,0
1725524,589,1,0,0,0,0
1725532,592,1,0,0,0,0
1725540,589,1,0,0,0,0
1725548,588,1,0,0,0,0
1725556,578,1,0,0,0,0
1725564,562,1,0,0,0,0
1725572,550,1,0,0,0,0
1725580,538,1,0,0,0,0
1725588,526,1,0,0,0,0
1725596,522,1,0,0,0,0
1725604,514,1,0,0,0,0
1725612,521,1,0,0,0,0
1725620,521,1,0,0,0,0
1725628,521,1,0,0,0,0
1725636,516,1,0,0,0,0
1725644,518,1,0,0,0,0
1725652,519,1,0,0,0,0
1725660,514,1,0,0,0,0
1725668,518,1,0,0,0,0
1725676,516,1,0,0,0,0
1725684,516,1,0,0,0,0
1725692,516,1,0,0,0,0
1725700,516,1,0,0,0,0
1725708,519,1,0,0,0,0
1725716,518,1,0,0,0,0
1725724,525,1,0,0,0,0
1725732,523,1,0,0,0,0
1725740,522,1,0,0,0,0
1725748,531,1,0,0,0,0
1725756,526,1,0,0,0,0
1725764,530,1,0,0,0,0
1725772,526,1,0,0,0,0
1725780,526,1,0,0,0,0
1725788,530,1,0,0,0,0
1725796,537,1,0,0,0,0
1725804,534,1,0,0,0,0
1725812,532,1,0,0,0,0
1725820,535,1,0,0,0,0
1725828,545,1,0,0,0,0
1725836,542,1,0,0,0,0
1725844,541,1,0,0,0,0
1725852,550,1,0,0,0,0
1725860,542,1,0,0,0,0
1725868,549,1,0,0,0,0
1725876,543,1,0,0,0,0
1725884,542,1,0,0,0,0
1725892,544,1,0,0,0,0
1725900,543,1,0,0,0,0
1725908,548,1,0,0,0,0
1725916,547,1,0,0,0,0
1725924,547,1,0,0,0,0
1725932,545,1,0,0,0,0
1725940,542,1,0,0,0,0
1725948,546,1,0,0,0,0
1725956,545,1,0,0,0,0
1725964,550,1,0,0,0,0
1725972,547,1,0,0,0,0
1725980,546,1,0,0,0,0
1725988,552,1,0,0,0,0
1725996,546,1,0,0,0,0
1726004,545,1,0,0,0,0
1726012,543,1,0,0,0,0
1726020,541,1,0,0,0,0
1726028,552,1,0,0,0,0
1726036,545,1,0,0,0,0
1726044,545,1,0,0,0,0
1726052,547,1,0,0,0,0
1726060,559,1,0,0,0,0
1726068,569,1,0,0,0,0
1726076,559,1,0,0,0,0
1726084,560,1,0,0,0,0
1726092,547,1,0,0,0,0
1726100,545,1,0,0,0,0
1726108,542,1,0,0,0,0
1726116,544,1,0,0,0,0
1726124,547,1,0,0,0,0
1726132,545,1,0,0,0,0
1726140,537,1,0,0,0,0
1726148,536,1,0,0,0,0
1726156,509,1,0,0,0,0
1726164,448,1,0,0,0,0
1726172,376,1,0,0,0,0
1726180,468,1,0,0,0,0
1726188,745,1,0,0,0,0
1726196,811,1,0,0,0,0
1726204,586,1,0,0,0,0
1726212,658,1,0,0,0,0
1726220,698,1,0,0,0,0
1726228,605,1,0,0,0,0
1726236,525,1,0,0,0,0
1726244,517,1,0,0,0,0
1726252,513,1,0,0,0,0
1726260,507,1,0,0,0,0
1726268,507,1,0,0,0,0
1726276,512,1,0,0,0,0
1726284,509,1,0,0,0,0
1726292,512,1,0,0,0,0
1726300,509,1,0,0,0,0
1726308,513,1,0,0,0,0
1726316,518,1,0,0,0,0
1726324,516,1,0,0,0,0
1726332,519,1,0,0,0,0
1726340,520,1,0,0,0,0
1726348,522,1,0,0,0,0
1726356,519,1,0,0,0,0
1726364,523,1,0,0,0,0
1726372,533,1,0,0,0,0
1726380,534,1,0,0,0,0
1726388,545,1,0,0,0,0
1726396,546,1,0,0,0,0
1726404,554,1,0,0,0,0
1726412,570,1,0,0,0,0
1726420,580,1,0,0,0,0
1726428,589,1,0,0,0,0
1726436,589,1,0,0,0,0
1726444,589,1,0,0,0,0
1726452,590,1,0,0,0,0
1726460,582,1,0,0,0,0
1726468,577,1,0,0,0,0
1726476,565,1,0,0,0,0
1726484,547,1,0,0,0,0
1726492,535,1,0,0,0,0
1726500,526,1,0,0,0,0
1726508,528,1,0,0,0,0
1726516,524,1,0,0,0,0
1726524,519,1,0,0,0,0
1726532,523,1,0,0,0,0
1726540,521,1,0,0,0,0
1726548,519,1,0,0,0,0
1726556,519,1,0,0,0,0
1726564,517,1,0,0,0,0
1726572,522,1,0,0,0,0
1726580,513,1,0,0,0,0
1726588,518,1,0,0,0,0
1726596,518,1,0,0,0,0
1726604,518,1,0,0,0,0
1726612,523,1,0,0,0,0
1726620,519,1,0,0,0,0
1726628,521,1,0,0,0,0
1726636,521,1,0,0,0,0
1726644,522,1,0,0,0,0
1726652,526,1,0,0,0,0
1726660,523,1,0,0,0,0
1726668,522,1,0,0,0,0
1726676,524,1,0,0,0,0
1726684,526,1,0,0,0,0
1726692,530,1,0,0,0,0
1726700,530,1,0,0,0,0
1726708,533,1,0,0,0,0
1726716,536,1,0,0,0,0
1726724,537,1,0,0,0,0
1726732,535,1,0,0,0,0
1726740,535,1,0,0,0,0
1726748,542,1,0,0,0,0
1726756,541,1,0,0,0,0
1726764,538,1,0,0,0,0
1726772,541,1,0,0,0,0
1726780,545,1,0,0,0,0
1726788,545,1,0,0,0,0
1726796,540,1,0,0,0,0
1726804,537,1,0,0,0,0
1726812,542,1,0,0,0,0
1726820,542,1,0,0,0,0
1726828,547,1,0,0,0,0
1726836,545,1,0,0,0,0
1726844,542,1,0,0,0,0
1726853,549,1,0,0,0,0
1726861,543,1,0,0,0,0
1726869,552,1,0,0,0,0
1726877,541,1,0,0,0,0
1726885,540,1,0,0,0,0
1726893,547,1,0,0,0,0
1726901,542,1,0,0,0,0
1726909,542,1,0,0,0,0
1726917,545,1,0,0,0,0
1726925,540,1,0,0,0,0
1726933,543,1,0,0,0,0
1726941,538,1,0,0,0,0
1726949,540,1,0,0,0,0
1726957,540,1,0,0,0,0
1726965,541,1,0,0,0,0
1726973,543,1,0,0,0,0
1726981,533,1,0,0,0,0
1726989,541,1,0,0,0,0
1726997,540,1,0,0,0,0
1727005,543,1,0,0,0,0
1727013,545,1,0,0,0,0
1727021,538,1,0,0,0,0
1727029,541,1,0,0,0,0
1727037,552,1,0,0,0,0
1727045,557,1,0,0,0,0
1727053,561,1,0,0,0,0
1727061,554,1,0,0,0,0
1727069,547,1,0,0,0,0
1727077,542,1,0,0,0,0
1727085,538,1,0,0,0,0
1727093,546,1,0,0,0,0
1727101,541,1,0,0,0,0
1727109,542,1,0,0,0,0
1727117,542,1,0,0,0,0
1727125,535,1,0,0,0,0
1727133,514,1,0,0,0,0
1727141,447,1,0,0,0,0
1727149,375,1,0,0,0,0
1727157,471,1,0,0,0,0
1727165,752,1,0,0,0,0
1727173,824,1,0,0,0,0
1727181,568,1,0,0,0,0
1727189,634,1,0,0,0,0
1727197,696,1,0,0,0,0
1727205,614,1,0,0,0,0
1727213,533,1,0,0,0,0
1727221,507,1,0,0,0,0
1727229,506,1,0,0,0,0
1727237,514,1,0,0,0,0
1727245,509,1,0,0,0,0
1727253,501,1,0,0,0,0
1727261,502,1,0,0,0,0
1727269,509,1,0,0,0,0
1727277,506,1,0,0,0,0
1727285,507,1,0,0,0,0
1727293,512,1,0,0,0,0
1727301,506,1,0,0,0,0
1727309,509,1,0,0,0,0
1727317,519,1,0,0,0,0
1727325,522,1,0,0,0,0
1727333,522,1,0,0,0,0
1727341,524,1,0,0,0,0
1727349,536,1,0,0,0,0
1727357,536,1,0,0,0,0
1727365,535,1,0,0,0,0
1727373,545,1,0,0,0,0
1727381,553,1,0,0,0,0
1727389,561,1,0,0,0,0
1727397,568,1,0,0,0,0
1727405,581,1,0,0,0,0
1727413,585,1,0,0,0,0
1727421,594,1,0,0,0,0
1727429,598,1,0,0,0,0
1727437,589,1,0,0,0,0
1727445,579,1,0,0,0,0
1727453,564,1,0,0,0,0
1727461,552,1,0,0,0,0
1727469,540,1,0,0,0,0
1727477,533,1,0,0,0,0
1727485,528,1,0,0,0,0
1727493,523,1,0,0,0,0
1727501,522,1,0,0,0,0
1727509,521,1,0,0,0,0
1727517,518,1,0,0,0,0
1727525,518,1,0,0,0,0
1727533,519,1,0,0,0,0
1727541,518,1,0,0,0,0
1727549,519,1,0,0,0,0
1727557,517,1,0,0,0,0
1727565,517,1,0,0,0,0
1727573,513,1,0,0,0,0
1727581,516,1,0,0,0,0
1727589,524,1,0,0,0,0
1727597,519,1,0,0,0,0
1727605,517,1,0,0,0,0
1727613,519,1,0,0,0,0
1727621,519,1,0,0,0,0
1727629,522,1,0,0,0,0
1727637,526,1,0,0,0,0
1727645,525,1,0,0,0,0
1727653,532,1,0,0,0,0
1727661,530,1,0,0,0,0
1727669,535,1,0,0,0,0
1727677,533,1,0,0,0,0
1727685,528,1,0,0,0,0
1727693,542,1,0,0,0,0
1727701,538,1,0,0,0,0
1727709,541,1,0,0,0,0
1727717,537,1,0,0,0,0
1727725,541,1,0,0,0,0
1727733,543,1,0,0,0,0
1727741,543,1,0,0,0,0
1727749,547,1,0,0,0,0
1727757,545,1,0,0,0,0
1727765,547,1,0,0,0,0
1727773,546,1,0,0,0,0
1727781,545,1,0,0,0,0
1727789,550,1,0,0,0,0
1727797,543,1,0,0,0,0
1727805,546,1,0,0,0,0
1727813,547,1,0,0,0,0
1727821,552,1,0,0,0,0
1727829,545,1,0,0,0,0
1727837,545,1,0,0,0,0
1727845,548,1,0,0,0,0
1727853,552,1,0,0,0,0
1727861,546,1,0,0,0,0
1727869,549,1,0,0,0,0
1727877,549,1,0,0,0,0
1727885,550,1,0,0,0,0
1727893,553,1,0,0,0,0
1727901,553,1,0,0,0,0
1727909,568,1,0,0,0,0
1727917,572,1,0,0,0,0
1727925,567,1,0,0,0,0
1727933,556,1,0,0,0,0
1727941,549,1,0,0,0,0
1727949,545,1,0,0,0,0
1727957,546,1,0,0,0,0
1727965,542,1,0,0,0,0
1727973,545,1,0,0,0,0
1727981,545,1,0,0,0,0
1727989,542,1,0,0,0,0
1727997,534,1,0,0,0,0
1728005,499,1,0,0,0,0
1728013,424,1,0,0,0,0
1728021,381,1,0,0,0,0
1728029,530,1,0,0,0,0
1728037,820,1,0,0,0,0
1728045,750,1,0,0,0,0
1728053,566,1,0,0,0,0
1728061,666,1,0,0,0,0
1728069,685,1,0,0,0,0
1728077,583,1,0,0,0,0
1728085,517,1,0,0,0,0
1728093,513,1,0,0,0,0
1728101,507,1,0,0,0,0
1728109,508,1,0,0,0,0
1728117,510,1,0,0,0,0
1728125,507,1,0,0,0,0
1728133,512,1,0,0,0,0
1728141,509,1,0,0,0,0
1728149,512,1,0,0,0,0
1728157,513,1,0,0,0,0
1728165,510,1,0,0,0,0
1728173,516,1,0,0,0,0
1728181,514,1,0,0,0,0
1728189,519,1,0,0,0,0
1728197,521,1,0,0,0,0
1728205,521,1,0,0,0,0
1728213,528,1,0,0,0,0
1728221,537,1,0,0,0,0
1728229,545,1,0,0,0,0
1728237,545,1,0,0,0,0
1728245,552,1,0,0,0,0
1728253,562,1,0,0,0,0
1728261,568,1,0,0,0,0
1728270,582,1,0,0,0,0
1728278,591,1,0,0,0,0
1728286,591,1,0,0,0,0
1728294,595,1,0,0,0,0
1728302,590,1,0,0,0,0
1728310,584,1,0,0,0,0
1728318,570,1,0,0,0,0
1728326,558,1,0,0,0,0
1728334,547,1,0,0,0,0
1728342,531,1,0,0,0,0
1728350,529,1,0,0,0,0
1728358,525,1,0,0,0,0
1728366,522,1,0,0,0,0
1728374,530,1,0,0,0,0
1728382,524,1,0,0,0,0
1728390,514,1,0,0,0,0
1728398,521,1,0,0,0,0
1728406,522,1,0,0,0,0
1728414,521,1,0,0,0,0
1728422,513,1,0,0,0,0
1728430,522,1,0,0,0,0
1728438,522,1,0,0,0,0
1728446,513,1,0,0,0,0
1728454,519,1,0,0,0,0
1728462,514,1,0,0,0,0
1728470,522,1,0,0,0,0
1728478,521,1,0,0,0,0
1728486,523,1,0,0,0,0
1728494,524,1,0,0,0,0
1728502,514,1,0,0,0,0
1728510,523,1,0,0,0,0
1728518,532,1,0,0,0,0
1728526,528,1,0,0,0,0
1728534,524,1,0,0,0,0
1728542,532,1,0,0,0,0
1728550,533,1,0,0,0,0
1728558,541,1,0,0,0,0
1728566,534,1,0,0,0,0
1728574,536,1,0,0,0,0
1728582,529,1,0,0,0,0
1728590,540,1,0,0,0,0
1728598,541,1,0,0,0,0
1728606,538,1,0,0,0,0
1728614,543,1,0,0,0,0
1728622,538,1,0,0,0,0
1728630,546,1,0,0,0,0
1728638,546,1,0,0,0,0
1728646,541,1,0,0,0,0
1728654,542,1,0,0,0,0
1728662,542,1,0,0,0,0
1728670,541,1,0,0,0,0
1728678,545,1,0,0,0,0
1728686,545,1,0,0,0,0
1728694,542,1,0,0,0,0
1728702,542,1,0,0,0,0
1728710,546,1,0,0,0,0
1728718,544,1,0,0,0,0
1728726,541,1,0,0,0,0
1728734,545,1,0,0,0,0
1728742,542,1,0,0,0,0
1728750,543,1,0,0,0,0
1728758,553,1,0,0,0,0
1728766,545,1,0,0,0,0
1728774,541,1,0,0,0,0
1728782,535,1,0,0,0,0
1728790,542,1,0,0,0,0
1728798,547,1,0,0,0,0
1728806,557,1,0,0,0,0
1728814,568,1,0,0,0,0
1728822,555,1,0,0,0,0
1728830,547,1,0,0,0,0
1728838,547,1,0,0,0,0
1728846,536,1,0,0,0,0
1728854,541,1,0,0,0,0
1728862,540,1,0,0,0,0
1728870,542,1,0,0,0,0
1728878,545,1,0,0,0,0
1728886,541,1,0,0,0,0
1728894,519,1,0,0,0,0
1728902,475,1,0,0,0,0
1728910,393,1,0,0,0,0
1728918,401,1,0,0,0,0
1728926,600,1,0,0,0,0
1728934,865,1,0,0,0,0
1728942,658,1,0,0,0,0
1728950,569,1,0,0,0,0
1728958,687,1,0,0,0,0
1728966,655,1,0,0,0,0
1728974,554,1,0,0,0,0
1728982,514,1,0,0,0,0
1728990,512,1,0,0,0,0
1728998,508,1,0,0,0,0
1729006,506,1,0,0,0,0
1729014,510,1,0,0,0,0
1729022,511,1,0,0,0,0
1729030,507,1,0,0,0,0
1729038,512,1,0,0,0,0
1729046,508,1,0,0,0,0
1729054,518,1,0,0,0,0
1729062,513,1,0,0,0,0
1729070,512,1,0,0,0,0
1729078,513,1,0,0,0,0
1729086,514,1,0,0,0,0
1729094,523,1,0,0,0,0
1729102,532,1,0,0,0,0
1729110,534,1,0,0,0,0
1729118,529,1,0,0,0,0
1729126,533,1,0,0,0,0
1729134,545,1,0,0,0,0
1729142,552,1,0,0,0,0
1729150,569,1,0,0,0,0
1729158,574,1,0,0,0,0
1729166,579,1,0,0,0,0
1729174,589,1,0,0,0,0
1729182,585,1,0,0,0,0
1729190,586,1,0,0,0,0
1729198,586,1,0,0,0,0
1729206,580,1,0,0,0,0
1729214,570,1,0,0,0,0
1729222,547,1,0,0,0,0
1729230,541,1,0,0,0,0
1729238,534,1,0,0,0,0
1729246,521,1,0,0,0,0
1729254,523,1,0,0,0,0
1729262,519,1,0,0,0,0
1729270,522,1,0,0,0,0
1729278,523,1,0,0,0,0
1729286,517,1,0,0,0,0
1729294,522,1,0,0,0,0
1729302,516,1,0,0,0,0
1729310,518,1,0,0,0,0
1729318,517,1,0,0,0,0
1729326,517,1,0,0,0,0
1729334,521,1,0,0,0,0
1729342,508,1,0,0,0,0
1729350,511,1,0,0,0,0
1729358,518,1,0,0,0,0
1729366,518,1,0,0,0,0
1729374,521,1,0,0,0,0
1729382,524,1,0,0,0,0
1729390,521,1,0,0,0,0
1729398,522,1,0,0,0,0
1729406,525,1,0,0,0,0
1729414,528,1,0,0,0,0
1729422,529,1,0,0,0,0
1729430,526,1,0,0,0,0
1729438,528,1,0,0,0,0
1729446,533,1,0,0,0,0
1729454,540,1,0,0,0,0
1729462,534,1,0,0,0,0
1729470,536,1,0,0,0,0
1729478,541,1,0,0,0,0
1729486,535,1,0,0,0,0
1729494,541,1,0,0,0,0
1729502,538,1,0,0,0,0
1729510,544,1,0,0,0,0
1729518,544,1,0,0,0,0
1729526,543,1,0,0,0,0
1729534,547,1,0,0,0,0
1729542,543,1,0,0,0,0
1729550,545,1,0,0,0,0
1729558,550,1,0,0,0,0
1729566,549,1,0,0,0,0
1729574,552,1,0,0,0,0
1729582,553,1,0,0,0,0
1729590,562,1,0,0,0,0
1729598,574,1,0,0,0,0
1729606,570,1,0,0,0,0
1729614,566,1,0,0,0,0
1729622,556,1,0,0,0,0
1729630,555,1,0,0,0,0
1729638,552,1,0,0,0,0
1729646,542,1,0,0,0,0
1729654,545,1,0,0,0,0
1729662,545,1,0,0,0,0
1729671,545,1,0,0,0,0
1729679,546,1,0,0,0,0
1729687,532,1,0,0,0,0
1729695,494,1,0,0,0,0
1729703,405,1,0,0,0,0
1729711,405,1,0,0,0,0
1729719,605,1,0,0,0,0
1729727,871,1,0,0,0,0
1729735,687,1,0,0,0,0
1729743,534,1,0,0,0,0
1729751,661,1,0,0,0,0
1729759,663,1,0,0,0,0
1729767,554,1,0,0,0,0
1729775,526,1,0,0,0,0
1729783,513,1,0,0,0,0
1729791,508,1,0,0,0,0
1729799,507,1,0,0,0,0
1729807,511,1,0,0,0,0
1729815,514,1,0,0,0,0
1729823,511,1,0,0,0,0
1729831,513,1,0,0,0,0
1729839,516,1,0,0,0,0
1729847,516,1,0,0,0,0
1729855,517,1,0,0,0,0
1729863,512,1,0,0,0,0
1729871,522,1,0,0,0,0
1729879,524,1,0,0,0,0
1729887,522,1,0,0,0,0
1729895,528,1,0,0,0,0
1729903,528,1,0,0,0,0
1729911,535,1,0,0,0,0
1729919,543,1,0,0,0,0
1729927,553,1,0,0,0,0
1729935,554,1,0,0,0,0
1729943,567,1,0,0,0,0
1729951,576,1,0,0,0,0
1729959,584,1,0,0,0,0
1729967,588,1,0,0,0,0
1729975,596,1,0,0,0,0
1729983,595,1,0,0,0,0
1729991,588,1,0,0,0,0
1729999,583,1,0,0,0,0
1730007,567,1,0,0,0,0
1730015,555,1,0,0,0,0
1730023,542,1,0,0,0,0
1730031,533,1,0,0,0,0
1730039,523,1,0,0,0,0
1730047,522,1,0,0,0,0
1730055,521,1,0,0,0,0
1730063,516,1,0,0,0,0
1730071,517,1,0,0,0,0
1730079,521,1,0,0,0,0
1730087,514,1,0,0,0,0
1730095,514,1,0,0,0,0
1730103,513,1,0,0,0,0
1730111,516,1,0,0,0,0
1730119,521,1,0,0,0,0
1730127,508,1,0,0,0,0
1730135,519,1,0,0,0,0
1730143,517,1,0,0,0,0
1730151,509,1,0,0,0,0
1730159,516,1,0,0,0,0
1730167,518,1,0,0,0,0
1730175,521,1,0,0,0,0
1730183,519,1,0,0,0,0
1730191,523,1,0,0,0,0
1730199,521,1,0,0,0,0
1730207,523,1,0,0,0,0
1730215,525,1,0,0,0,0
1730223,528,1,0,0,0,0
1730231,530,1,0,0,0,0
1730239,528,1,0,0,0,0
1730247,529,1,0,0,0,0
1730255,536,1,0,0,0,0
1730263,535,1,0,0,0,0
1730271,534,1,0,0,0,0
1730279,545,1,0,0,0,0
1730287,537,1,0,0,0,0
1730295,541,1,0,0,0,0
1730303,543,1,0,0,0,0
1730311,543,1,0,0,0,0
1730319,543,1,0,0,0,0
1730327,541,1,0,0,0,0
1730335,543,1,0,0,0,0
1730343,543,1,0,0,0,0
1730351,541,1,0,0,0,0
1730359,541,1,0,0,0,0
1730367,541,1,0,0,0,0
1730375,541,1,0,0,0,0
1730383,541,1,0,0,0,0
1730391,542,1,0,0,0,0
1730399,535,1,0,0,0,0
1730407,536,1,0,0,0,0
1730415,546,1,0,0,0,0
1730423,546,1,0,0,0,0
1730431,540,1,0,0,0,0
1730439,542,1,0,0,0,0
1730447,541,1,0,0,0,0
1730455,552,1,0,0,0,0
1730463,554,1,0,0,0,0
1730471,570,1,0,0,0,0
1730479,567,1,0,0,0,0
1730487,547,1,0,0,0,0
1730495,546,1,0,0,0,0
1730503,545,1,0,0,0,0
1730511,542,1,0,0,0,0
1730519,546,1,0,0,0,0
1730527,538,1,0,0,0,0
1730535,538,1,0,0,0,0
1730543,541,1,0,0,0,0
1730551,537,1,0,0,0,0
1730559,509,1,0,0,0,0
1730567,451,1,0,0,0,0
1730575,376,1,0,0,0,0
1730583,430,1,0,0,0,0
1730591,675,1,0,0,0,0
1730599,838,1,0,0,0,0
1730607,604,1,0,0,0,0
1730615,631,1,0,0,0,0
1730623,708,1,0,0,0,0
1730631,624,1,0,0,0,0
1730639,528,1,0,0,0,0
1730647,506,1,0,0,0,0
1730655,516,1,0,0,0,0
1730663,508,1,0,0,0,0
1730671,502,1,0,0,0,0
1730679,507,1,0,0,0,0
1730687,505,1,0,0,0,0
1730695,507,1,0,0,0,0
1730703,509,1,0,0,0,0
1730711,506,1,0,0,0,0
1730719,513,1,0,0,0,0
1730727,509,1,0,0,0,0
1730735,516,1,0,0,0,0
1730743,518,1,0,0,0,0
1730751,513,1,0,0,0,0
1730759,528,1,0,0,0,0
1730767,526,1,0,0,0,0
1730775,528,1,0,0,0,0
1730783,528,1,0,0,0,0
1730791,540,1,0,0,0,0
1730799,552,1,0,0,0,0
1730807,552,1,0,0,0,0
1730815,565,1,0,0,0,0
1730823,569,1,0,0,0,0
1730831,579,1,0,0,0,0
1730839,584,1,0,0,0,0
1730847,585,1,0,0,0,0
1730855,588,1,0,0,0,0
1730863,582,1,0,0,0,0
1730871,582,1,0,0,0,0
1730879,561,1,0,0,0,0
1730887,547,1,0,0,0,0
1730895,542,1,0,0,0,0
1730903,522,1,0,0,0,0
1730911,512,1,0,0,0,0
1730919,524,1,0,0,0,0
1730927,519,1,0,0,0,0
1730935,521,1,0,0,0,0
1730943,513,1,0,0,0,0
1730951,517,1,0,0,0,0
1730959,522,1,0,0,0,0
1730967,512,1,0,0,0,0
1730975,517,1,0,0,0,0
1730983,514,1,0,0,0,0
1730991,509,1,0,0,0,0
1730999,516,1,0,0,0,0
1731007,511,1,0,0,0,0
1731015,518,1,0,0,0,0
1731024,516,1,0,0,0,0
1731032,521,1,0,0,0,0
1731040,519,1,0,0,0,0
1731048,519,1,0,0,0,0
1731056,521,1,0,0,0,0
1731064,519,1,0,0,0,0
1731072,521,1,0,0,0,0
1731080,516,1,0,0,0,0
1731088,524,1,0,0,0,0
1731096,523,1,0,0,0,0
1731104,525,1,0,0,0,0
1731112,528,1,0,0,0,0
1731120,535,1,0,0,0,0
1731128,533,1,0,0,0,0
1731136,535,1,0,0,0,0
1731144,535,1,0,0,0,0
1731152,541,1,0,0,0,0
1731160,542,1,0,0,0,0
1731168,533,1,0,0,0,0
1731176,541,1,0,0,0,0
1731184,540,1,0,0,0,0
1731192,537,1,0,0,0,0
1731200,543,1,0,0,0,0
1731208,541,1,0,0,0,0
1731216,543,1,0,0,0,0
1731224,543,1,0,0,0,0
1731232,544,1,0,0,0,0
1731240,541,1,0,0,0,0
1731248,538,1,0,0,0,0
1731256,549,1,0,0,0,0
1731264,542,1,0,0,0,0
1731272,538,1,0,0,0,0
1731280,543,1,0,0,0,0
1731288,546,1,0,0,0,0
1731296,542,1,0,0,0,0
1731304,540,1,0,0,0,0
1731312,537,1,0,0,0,0
1731320,542,1,0,0,0,0
1731328,541,1,0,0,0,0
1731336,541,1,0,0,0,0
1731344,533,1,0,0,0,0
1731352,537,1,0,0,0,0
1731360,552,1,0,0,0,0
1731368,562,1,0,0,0,0
1731376,561,1,0,0,0,0
1731384,553,1,0,0,0,0
1731392,553,1,0,0,0,0
1731400,541,1,0,0,0,0
1731408,533,1,0,0,0,0
1731416,541,1,0,0,0,0
1731424,534,1,0,0,0,0
1731432,534,1,0,0,0,0
1731440,540,1,0,0,0,0
1731448,535,1,0,0,0,0
1731456,509,1,0,0,0,0
1731464,457,1,0,0,0,0
1731472,379,1,0,0,0,0
1731480,441,1,0,0,0,0
1731488,678,1,0,0,0,0
1731496,860,1,0,0,0,0
1731504,610,1,0,0,0,0
1731512,561,1,0,0,0,0
1731520,681,1,0,0,0,0
1731528,641,1,0,0,0,0
1731536,546,1,0,0,0,0
1731544,514,1,0,0,0,0
1731552,511,1,0,0,0,0
1731560,512,1,0,0,0,0
1731568,509,1,0,0,0,0
1731576,509,1,0,0,0,0
1731584,509,1,0,0,0,0
1731592,516,1,0,0,0,0
1731600,517,1,0,0,0,0
1731608,509,1,0,0,0,0
1731616,518,1,0,0,0,0
1731624,519,1,0,0,0,0
1731632,509,1,0,0,0,0
1731640,521,1,0,0,0,0
1731648,526,1,0,0,0,0
1731656,523,1,0,0,0,0
1731664,533,1,0,0,0,0
1731672,540,1,0,0,0,0
1731680,541,1,0,0,0,0
1731688,546,1,0,0,0,0
1731696,552,1,0,0,0,0
1731704,559,1,0,0,0,0
1731712,570,1,0,0,0,0
1731720,579,1,0,0,0,0
1731728,584,1,0,0,0,0
1731736,589,1,0,0,0,0
1731744,598,1,0,0,0,0
1731752,598,1,0,0,0,0
1731760,589,1,0,0,0,0
1731768,579,1,0,0,0,0
1731776,570,1,0,0,0,0
1731784,556,1,0,0,0,0
1731792,542,1,0,0,0,0
1731800,531,1,0,0,0,0
1731808,525,1,0,0,0,0
1731816,522,1,0,0,0,0
1731824,517,1,0,0,0,0
1731832,522,1,0,0,0,0
1731840,521,1,0,0,0,0
1731848,516,1,0,0,0,0
1731856,521,1,0,0,0,0
1731864,517,1,0,0,0,0
1731872,518,1,0,0,0,0
1731880,518,1,0,0,0,0
1731888,514,1,0,0,0,0
1731896,516,1,0,0,0,0
1731904,517,1,0,0,0,0
1731912,521,1,0,0,0,0
1731920,521,1,0,0,0,0
1731928,514,1,0,0,0,0
1731936,521,1,0,0,0,0
1731944,525,1,0,0,0,0
1731952,522,1,0,0,0,0
1731960,523,1,0,0,0,0
1731968,528,1,0,0,0,0
1731976,528,1,0,0,0,0
1731984,526,1,0,0,0,0
1731992,532,1,0,0,0,0
1732000,533,1,0,0,0,0
1732008,532,1,0,0,0,0
1732016,535,1,0,0,0,0
1732024,535,1,0,0,0,0
1732032,532,1,0,0,0,0
1732040,537,1,0,0,0,0
1732048,535,1,0,0,0,0
1732056,537,1,0,0,0,0
1732064,542,1,0,0,0,0
1732072,537,1,0,0,0,0
1732080,541,1,0,0,0,0
1732088,541,1,0,0,0,0
1732096,543,1,0,0,0,0
1732104,545,1,0,0,0,0
1732112,543,1,0,0,0,0
1732120,545,1,0,0,0,0
1732128,542,1,0,0,0,0
1732136,545,1,0,0,0,0
1732144,546,1,0,0,0,0
1732152,545,1,0,0,0,0
1732160,541,1,0,0,0,0
1732168,538,1,0,0,0,0
1732176,545,1,0,0,0,0
1732184,547,1,0,0,0,0
1732192,542,1,0,0,0,0
1732200,544,1,0,0,0,0
1732208,543,1,0,0,0,0
1732216,552,1,0,0,0,0
1732224,546,1,0,0,0,0
1732232,543,1,0,0,0,0
1732240,554,1,0,0,0,0
1732248,542,1,0,0,0,0
1732256,542,1,0,0,0,0
1732264,543,1,0,0,0,0
1732272,547,1,0,0,0,0
1732280,546,1,0,0,0,0
1732288,542,1,0,0,0,0
1732296,538,1,0,0,0,0
1732304,543,1,0,0,0,0
1732312,550,1,0,0,0,0
1732320,543,1,0,0,0,0
1732328,552,1,0,0,0,0
1732336,562,1,0,0,0,0
1732344,567,1,0,0,0,0
1732352,569,1,0,0,0,0
1732360,562,1,0,0,0,0
1732368,549,1,0,0,0,0
1732376,549,1,0,0,0,0
1732384,547,1,0,0,0,0
1732392,538,1,0,0,0,0
1732400,546,1,0,0,0,0
1732408,552,1,0,0,0,0
1732417,546,1,0,0,0,0
1732425,538,1,0,0,0,0
1732433,508,1,0,0,0,0
1732441,457,1,0,0,0,0
1732449,372,1,0,0,0,0
1732457,456,1,0,0,0,0
1732465,728,1,0,0,0,0
1732473,822,1,0,0,0,0
1732481,616,1,0,0,0,0
1732489,675,1,0,0,0,0
1732497,716,1,0,0,0,0
1732505,610,1,0,0,0,0
1732513,525,1,0,0,0,0
1732521,514,1,0,0,0,0
1732529,506,1,0,0,0,0
1732537,514,1,0,0,0,0
1732545,514,1,0,0,0,0
1732553,507,1,0,0,0,0
1732561,508,1,0,0,0,0
1732569,512,1,0,0,0,0
1732577,513,1,0,0,0,0
1732585,514,1,0,0,0,0
1732593,513,1,0,0,0,0
1732601,519,1,0,0,0,0
1732609,512,1,0,0,0,0
1732617,516,1,0,0,0,0
1732625,521,1,0,0,0,0
1732633,521,1,0,0,0,0
1732641,522,1,0,0,0,0
1732649,525,1,0,0,0,0
1732657,536,1,0,0,0,0
1732665,540,1,0,0,0,0
1732673,547,1,0,0,0,0
1732681,560,1,0,0,0,0
1732689,562,1,0,0,0,0
1732697,580,1,0,0,0,0
1732705,581,1,0,0,0,0
1732713,589,1,0,0,0,0
1732721,595,1,0,0,0,0
1732729,592,1,0,0,0,0
1732737,588,1,0,0,0,0
1732745,576,1,0,0,0,0
1732753,562,1,0,0,0,0
1732761,556,1,0,0,0,0
1732769,541,1,0,0,0,0
1732777,535,1,0,0,0,0
1732785,528,1,0,0,0,0
1732793,517,1,0,0,0,0
1732801,519,1,0,0,0,0
1732809,519,1,0,0,0,0
1732817,521,1,0,0,0,0
1732825,520,1,0,0,0,0
1732833,517,1,0,0,0,0
1732841,522,1,0,0,0,0
1732849,522,1,0,0,0,0
1732857,519,1,0,0,0,0
1732865,518,1,0,0,0,0
1732873,516,1,0,0,0,0
1732881,518,1,0,0,0,0
1732889,517,1,0,0,0,0
1732897,518,1,0,0,0,0
1732905,522,1,0,0,0,0
1732913,524,1,0,0,0,0
